Pressure [MeV/fm^3],Energy Density [MeV/fm^3]
9.287046747830706949e-10,9.531159870745342216e-06
9.452492722883762150e-10,9.650615809203603473e-06
9.617811541042860654e-10,9.771569650142489984e-06
9.783367758349165714e-10,9.894040128029968378e-06
9.949743212945553809e-10,1.001804618190501846e-05
1.011760322128183936e-09,1.014360697760190751e-05
1.028770382030120005e-09,1.027074190971135104e-05
1.046089951795231157e-09,1.039947060350649977e-05
1.063815158391052129e-09,1.052981291682952416e-05
1.082050424902814687e-09,1.066178894663552507e-05
1.100721405450545275e-09,1.079541930136203251e-05
1.119755266806475571e-09,1.093072484466978551e-05
1.139159807456920479e-09,1.106772658482239087e-05
1.158943005613803354e-09,1.120644579374885883e-05
1.179113023535474665e-09,1.134690401035785838e-05
1.199678211953886660e-09,1.148912304389376681e-05
1.220647114610772426e-09,1.163312497733504211e-05
1.242028472905547288e-09,1.177893217083544682e-05
1.263831230713988667e-09,1.192656726521175191e-05
1.286064539068581357e-09,1.207605318548076848e-05
1.308737760988223703e-09,1.222741314442285775e-05
1.331860476857930308e-09,1.238067064620003057e-05
1.355442489680113492e-09,1.253584949001994600e-05
1.379493830449325605e-09,1.269297377384611890e-05
1.404024763659442464e-09,1.285206789815490916e-05
1.429045792946608839e-09,1.301315656973997527e-05
1.454567666840258604e-09,1.317626480556442768e-05
1.480601384793352397e-09,1.334141793665477650e-05
1.507158203895145362e-09,1.350864161204901473e-05
1.534249644569875099e-09,1.367796180280381932e-05
1.561887496873023503e-09,1.384940480604546934e-05
1.590083827032260893e-09,1.402299724907152845e-05
1.618850984150287186e-09,1.419876609350427941e-05
1.648201607073623478e-09,1.437673863949663406e-05
1.678148631426779579e-09,1.455694252999110470e-05
1.708705295940183634e-09,1.473940575503458995e-05
1.739885150211883535e-09,1.492415665616138400e-05
1.771702063040150417e-09,1.511122393080615899e-05
1.804170229812954587e-09,1.530063663677747461e-05
1.837304180452601863e-09,1.549242419679296026e-05
1.871118787556988891e-09,1.568661640307181926e-05
1.905629274742383636e-09,1.588324342198539545e-05
1.940851225192754125e-09,1.608233579876649515e-05
1.976881660083555430e-09,1.628392663885785583e-05
2.013899901880699981e-09,1.648805163564867027e-05
2.051832119544638593e-09,1.669474006873561305e-05
2.090578649568874722e-09,1.690402091182165457e-05
2.130024585621609796e-09,1.711592312178489229e-05
2.170038475086010255e-09,1.733047560849460960e-05
2.210470925264872749e-09,1.754770720225957940e-05
2.251153113632371367e-09,1.776764661875843018e-05
2.291909999984177481e-09,1.799032281875180433e-05
2.332772607090429672e-09,1.821577071254038225e-05
2.373828407171993988e-09,1.844402714819795387e-05
2.415152032487883857e-09,1.867512905641001528e-05
2.456829240839676426e-09,1.890911409913721377e-05
2.498957901991651952e-09,1.914602070139116211e-05
2.541649054135504272e-09,1.938588808495399346e-05
2.585028034822852396e-09,1.962875630416098020e-05
2.629235560205364112e-09,1.987466628035983667e-05
2.674096432188652608e-09,2.012365091272380992e-05
2.719405020550020064e-09,2.037574274863832748e-05
2.765238959538630683e-09,2.063098241168787224e-05
2.811686156902028790e-09,2.088941127799496004e-05
2.858845678695829094e-09,2.115107150579249599e-05
2.906828696186057945e-09,2.141600606673217549e-05
2.955759498741510441e-09,2.168425877903424018e-05
3.005776576842362503e-09,2.195587434259029856e-05
3.056954660720070186e-09,2.223089625194377014e-05
3.109132830969815902e-09,2.250936218751017827e-05
3.162314667955934892e-09,2.279131476507106256e-05
3.216521572280503177e-09,2.307679760405743059e-05
3.271775435375303093e-09,2.336585486867834248e-05
3.328098651276781502e-09,2.365853127470158923e-05
3.385514128690929418e-09,2.395487209631809854e-05
3.444045303355377984e-09,2.425492317309123027e-05
3.503716150714100047e-09,2.455873091699367885e-05
3.564551197801427582e-09,2.486634231955582824e-05
3.626575534646306840e-09,2.517780495903660076e-05
3.689814829970931952e-09,2.549316700772635488e-05
3.754295345462624742e-09,2.581247723934433912e-05
3.820043950033196817e-09,2.613578503651918552e-05
3.887088134428372423e-09,2.646314039836155703e-05
3.955456026196006264e-09,2.679459394813044280e-05
4.025176405021884265e-09,2.713019694099380279e-05
4.096278720418331632e-09,2.747000127184669207e-05
4.168793109782117352e-09,2.781405948331986579e-05
4.242750411106955452e-09,2.816242477387856957e-05
4.318182180451552793e-09,2.851515100591489236e-05
4.395120709316235214e-09,2.887229271399926661e-05
4.473599042446288851e-09,2.923390511323377514e-05
4.553650996075748670e-09,2.960004410770835200e-05
4.635311176622665478e-09,2.997076629906122617e-05
4.718622755344749395e-09,3.034612873012620929e-05
4.803648618350493194e-09,3.072618851322230209e-05
4.890415422095584349e-09,3.111100475137737936e-05
4.978944781020346690e-09,3.150063748243818858e-05
5.069256995326608834e-09,3.189514756151324589e-05
5.161370887201220302e-09,3.229459667651775752e-05
5.255303624776445502e-09,3.269904736426924478e-05
5.351070533045615212e-09,3.310856302716202462e-05
5.448718845707351406e-09,3.352320679007967253e-05
5.548986775132277854e-09,3.394301898797943908e-05
5.651942872167843093e-09,3.436806367529232728e-05
5.757243919127634184e-09,3.479841982316756431e-05
5.864494860715173760e-09,3.523416903005438652e-05
5.973244368407871471e-09,3.567539568434321419e-05
6.082980097093182326e-09,3.612218713767085577e-05
6.193123614804303839e-09,3.657463388954644980e-05
6.303024985284926697e-09,3.703282978399289444e-05
6.412057913769294836e-09,3.749686876941436066e-05
6.520299077277891241e-09,3.796682169467804706e-05
6.628191145458212227e-09,3.844274783766376570e-05
6.736245592942664194e-09,3.892470507332576238e-05
6.845047814281338391e-09,3.941274971117917291e-05
6.955263524570594120e-09,3.990693628901658037e-05
7.067645608603865720e-09,4.040731735146281810e-05
7.183041446646197540e-09,4.091394321241068158e-05
7.302063832426575491e-09,4.142687321408778159e-05
7.423548802630117643e-09,4.194622844273474140e-05
7.547312231817043947e-09,4.247209753762734412e-05
7.673401742794385153e-09,4.300456226975283539e-05
7.801866036325710665e-09,4.354370543843811252e-05
7.932754916789963431e-09,4.408961088432880354e-05
8.066119318469167164e-09,4.464236350253317893e-05
8.202011332480778578e-09,4.520204925593336240e-05
8.340484234361240868e-09,4.576875518866565026e-05
8.481592510382035107e-09,4.634256943970991498e-05
8.625391883840944342e-09,4.692358125659768143e-05
8.771939347962363403e-09,4.751188100953438202e-05
8.921293196744328053e-09,4.810756020560199854e-05
9.073513056031998071e-09,4.871071150311646035e-05
9.228659915351832164e-09,4.932142872616762902e-05
9.386796160525390535e-09,4.993980687934439688e-05
9.547985607081929223e-09,5.056594216264710190e-05
9.712293537363912515e-09,5.119993198671904351e-05
9.879786739630403104e-09,5.184187498828836757e-05
1.005053353560009530e-08,5.249187104528146522e-05
1.022460381960490513e-08,5.315002129263907696e-05
1.040206909648675214e-08,5.381642813821062201e-05
1.058300252031952169e-08,5.449119527884593368e-05
1.076747893408467547e-08,5.517442771669242400e-05
1.095557491032421240e-08,5.586623177569995444e-05
1.114736879246951538e-08,5.656671511829581780e-05
1.134294073404254566e-08,5.727598676208654749e-05
1.154237274466123299e-08,5.799415709746145087e-05
1.174574873593425681e-08,5.872133790481234860e-05
1.195315456711270096e-08,5.945764237206590988e-05
1.216467809208405693e-08,6.020318511249333999e-05
1.238040920752409979e-08,6.095808218274781826e-05
1.260043990223532319e-08,6.172245110113211875e-05
1.282487041460242854e-08,6.249641096898110148e-05
1.305439942108718687e-08,6.328009243120356420e-05
1.328928611921754402e-08,6.407362020876444016e-05
1.352925442293852235e-08,6.487711150310958405e-05
1.377397850643127919e-08,6.569068419453196579e-05
1.402307844876811161e-08,6.651445678754853508e-05
1.427611557438239547e-08,6.734854835138161504e-05
1.453258747037292100e-08,6.819307845522638108e-05
1.479192266055339230e-08,6.904816709797019264e-05
1.505405940246323409e-08,6.991394447870922374e-05
1.532003362666912847e-08,7.079056092169937935e-05
1.558977343500141957e-08,7.167814974104562691e-05
1.586312606694508517e-08,7.257684456198916891e-05
1.613991595950462265e-08,7.348678031968177544e-05
1.641994293212907551e-08,7.440809324951773657e-05
1.670298025176276017e-08,7.534092087570039482e-05
1.698877257079888103e-08,7.628540199792463233e-05
1.727688058426177524e-08,7.724167409601552644e-05
1.756583830811795020e-08,7.820985915444081079e-05
1.785592897017236846e-08,7.919011044943110103e-05
1.814796763438337454e-08,8.018259206276143322e-05
1.844288514987870957e-08,8.118747189536827473e-05
1.874173819562335025e-08,8.220492185959248793e-05
1.904572003042405765e-08,8.323511808358339647e-05
1.935617199252595331e-08,8.427824112861279939e-05
1.967459342084614117e-08,8.533447618008439719e-05
2.000041425530961705e-08,8.640397554769743943e-05
2.033231726872175324e-08,8.748688096489357319e-05
2.067042909906821936e-08,8.858336052495365659e-05
2.101487924294848906e-08,8.969358443007476598e-05
2.136580012347604920e-08,9.081772501786102253e-05
2.172332715983870418e-08,9.195595678814706578e-05
2.208759883856051333e-08,9.310845643015989298e-05
2.245875678650759038e-08,9.427540285002258813e-05
2.283694584416743177e-08,9.545697719859048090e-05
2.322231413985021047e-08,9.665336289967015092e-05
2.361501317556666390e-08,9.786474567865219071e-05
2.401519790414755856e-08,9.909131359135960287e-05
2.442302681131848272e-08,1.003332570533244843e-04
2.483866200010323187e-08,1.015907688694374318e-04
2.526226927729732959e-08,1.028640442639709436e-04
2.569401824206292576e-08,1.041532809109806107e-04
2.613408237608565337e-08,1.054586789650850611e-04
2.658263912983900168e-08,1.067804410925450077e-04
2.703987003197779747e-08,1.081187725028920284e-04
2.750596078322616255e-08,1.094738809809246320e-04
2.798110135365422183e-08,1.108459769190601736e-04
2.846548608518312221e-08,1.122352733501076844e-04
2.895931379661172152e-08,1.136419859804538090e-04
2.946278789122783637e-08,1.150663332236670153e-04
2.997611646706855905e-08,1.165085362345256314e-04
3.049951243376103778e-08,1.179688189435050571e-04
3.103319361607333644e-08,1.194474080917096729e-04
3.157738287031740136e-08,1.209445332661450407e-04
3.213230821452242796e-08,1.224604269354968465e-04
3.269820295281445594e-08,1.239953244863596378e-04
3.327530580285033209e-08,1.255494642599234469e-04
3.386386102638803105e-08,1.271230875891224334e-04
3.446411856307159840e-08,1.287164388362527559e-04
3.507806680261187866e-08,1.303297414653681536e-04
3.571156919468307898e-08,1.319631685294609996e-04
3.636260635711592596e-08,1.336170053459573921e-04
3.702797019083597655e-08,1.352915569456253364e-04
3.770398966389621624e-08,1.369871380757147427e-04
3.838649150758404838e-08,1.387040737863088962e-04
3.907075819275355896e-08,1.404427000548597656e-04
3.975148301731888712e-08,1.422033644512548268e-04
4.042285960879518544e-08,1.439864249442423107e-04
4.108355019805008189e-08,1.457921812254599073e-04
4.173609433765291664e-08,1.476208829335166905e-04
4.238303753879970746e-08,1.494727832488207495e-04
4.302733641280179138e-08,1.513481333365245625e-04
4.367239528349728771e-08,1.532471818875480376e-04
4.432210539642421264e-08,1.551701746243147574e-04
4.498088688849386102e-08,1.571173537689445521e-04
4.565373369153850733e-08,1.590889574715128468e-04
4.633693799747263239e-08,1.610853996941658060e-04
4.702065800300017563e-08,1.631071822546193643e-04
4.770729166484874180e-08,1.651545469132799479e-04
4.839970276805677407e-08,1.672277260844578747e-04
4.910114307163055218e-08,1.693269441348063307e-04
4.981528530520591049e-08,1.714524164107645644e-04
5.054625845928652706e-08,1.736043481957499023e-04
5.129868551212132501e-08,1.757829335926956694e-04
5.207613747837099226e-08,1.779883980815031902e-04
5.287400137274452914e-08,1.802212062763031348e-04
5.369150688842648453e-08,1.824817367900571506e-04
5.452876579029979811e-08,1.847703506039394977e-04
5.538584257259129420e-08,1.870874159734982746e-04
5.626274933659233297e-08,1.894333087648156905e-04
5.715944028360315166e-08,1.918084128120336790e-04
5.807580579822079837e-08,1.942131202975808622e-04
5.901178188182630683e-08,1.966478259990153232e-04
5.997133694854757227e-08,1.991127153384740706e-04
6.095604113336344150e-08,2.016081064339651145e-04
6.196510931868048721e-08,2.041344478815067514e-04
6.299757648801949159e-08,2.066922031405141679e-04
6.405228127963892483e-08,2.092818514797779796e-04
6.512784837005518558e-08,2.119038889866887000e-04
6.622266961371070794e-08,2.145588296436446655e-04
6.733488386070612320e-08,2.172472064758123884e-04
6.846473955913087305e-08,2.199694459840793729e-04
6.961588062215258945e-08,2.227257998407436380e-04
7.078884102556911067e-08,2.255166909228049584e-04
7.198408068591345380e-08,2.283425519428085456e-04
7.320206998798835658e-08,2.312038210336925595e-04
7.444329003481937388e-08,2.341009418166618752e-04
7.570823290374287497e-08,2.370343634699112131e-04
7.699740190878177812e-08,2.400045407982084216e-04
7.831145735786530141e-08,2.430119333547466889e-04
7.965175040609535893e-08,2.460570020332502423e-04
8.101860219484757269e-08,2.491402203620650922e-04
8.241209446608586858e-08,2.522620694245939540e-04
8.383225794308951266e-08,2.554230367070304923e-04
8.527906727073760120e-08,2.586236162082946569e-04
8.675243559274039304e-08,2.618643085533197204e-04
8.825220874298082782e-08,2.651456211098558182e-04
8.977823469920268259e-08,2.684680676156208983e-04
9.133627442038219306e-08,2.718321297242239391e-04
9.292855131056006109e-08,2.752383186988517291e-04
9.455263697625894345e-08,2.786871827595390123e-04
9.620570536491343702e-08,2.821792794329306482e-04
9.788449848588623408e-08,2.857151758609711013e-04
9.958528975106853893e-08,2.892954491262074304e-04
1.013038447869463837e-07,2.929206865946867660e-04
1.030353795613704183e-07,2.965914862774825483e-04
1.047744917293246995e-07,3.003084573680085906e-04
1.065203259839855004e-07,3.040721866579615060e-04
1.082769577819323113e-07,3.078832361274896380e-04
1.100491576726822087e-07,3.117421706524464904e-04
1.118423537532768290e-07,3.156495583435544282e-04
1.136626882934891836e-07,3.196059702728445322e-04
1.155170783252394558e-07,3.236119801754839794e-04
1.174132804445600316e-07,3.276681641253888786e-04
1.193582087130609382e-07,3.317751116008657293e-04
1.213427519250023301e-07,3.359335245676262722e-04
1.233644920599050057e-07,3.401440694696464132e-04
1.254242061824090264e-07,3.444074001381267590e-04
1.275226889395367301e-07,3.487241786115355727e-04
1.296607529790708378e-07,3.530950752388044376e-04
1.318392293781841475e-07,3.575207687838283786e-04
1.340589680825738399e-07,3.620019465312823682e-04
1.363208383563394700e-07,3.665393043937745991e-04
1.386257292165854078e-07,3.711335470206423778e-04
1.409745498711859944e-07,3.757853879082447045e-04
1.433682302478452857e-07,3.804955495107055562e-04
1.458077214930363039e-07,3.852647633525296952e-04
1.482939964788979259e-07,3.900937701427008536e-04
1.508280503225481099e-07,3.949833198902212008e-04
1.534109009181192652e-07,3.999341720211100400e-04
1.560435894818324774e-07,4.049470954968811928e-04
1.587296994816500249e-07,4.100228681183298927e-04
1.614761899326659733e-07,4.151622763764737972e-04
1.642812046054750451e-07,4.203661195265648407e-04
1.671418895280940165e-07,4.256352071798768242e-04
1.700548807838478210e-07,4.309703592719719566e-04
1.730162601148411066e-07,4.363724062050252663e-04
1.760215074346831715e-07,4.418421889927685539e-04
1.790654500579862214e-07,4.473805594081405675e-04
1.821425855181054058e-07,4.529883800116371552e-04
1.852539875638047751e-07,4.586665220493849385e-04
1.884034048038643691e-07,4.644158668519412798e-04
1.915942255093482120e-07,4.702373069557877505e-04
1.948302581475936525e-07,4.761317459904386646e-04
1.981157675906992580e-07,4.821000988082023517e-04
2.014555138755832328e-07,4.881432916149095933e-04
2.048547936762955703e-07,4.942622621015779413e-04
2.083194846587213066e-07,5.004579595769815094e-04
2.118730261808717850e-07,5.067313206723275155e-04
2.155256746962420797e-07,5.130833054571201082e-04
2.192601556286997751e-07,5.195149211495375067e-04
2.230566711918848399e-07,5.260271901640061615e-04
2.268926918828925202e-07,5.326211504955935755e-04
2.307427272871388281e-07,5.392978561305866681e-04
2.345780811061348964e-07,5.460583774764384349e-04
2.383665894302094080e-07,5.529038018121826097e-04
2.420867864564142874e-07,5.598352176648473642e-04
2.457699611918888297e-07,5.668536684362483844e-04
2.494179805206226574e-07,5.739602442565577833e-04
2.530285881864624414e-07,5.811560536261445309e-04
2.565996647408688091e-07,5.884422188289097468e-04
2.601292517613733227e-07,5.958198760837842218e-04
2.636155781660030265e-07,6.032901756963545250e-04
2.670570887686778290e-07,6.108542822104957252e-04
2.704467842599669816e-07,6.185133829011502452e-04
2.736848683884471155e-07,6.262688147037869923e-04
2.767627287478770411e-07,6.341217926888575562e-04
2.797213664044426662e-07,6.420734735298158939e-04
2.826080491756191303e-07,6.501250195979851139e-04
2.854768579199192522e-07,6.582775983211076919e-04
2.883892711562125221e-07,6.665323814859971507e-04
2.914147904145269114e-07,6.748905444816634619e-04
2.946316088610525551e-07,6.833532654790938285e-04
2.980077144747451575e-07,6.919219384404455423e-04
3.014290358303303178e-07,7.005980947648364704e-04
3.049209505903933579e-07,7.093830138291445974e-04
3.085130277955131442e-07,7.182779811750138708e-04
3.122383558353833959e-07,7.272842897073492812e-04
3.161338277559049852e-07,7.364032391127702231e-04
3.202404459315557583e-07,7.456361352265864807e-04
3.246036472946525102e-07,7.549842893450002101e-04
3.292831946808368643e-07,7.644489925103401190e-04
3.343426678246648201e-07,7.740315487019024934e-04
3.397531171873907790e-07,7.837335301399681649e-04
3.454701674700984214e-07,7.935565693381807159e-04
3.514421496631255665e-07,8.035023377179695758e-04
3.576094577007238077e-07,8.135725476039295774e-04
3.639038597877217336e-07,8.237689543459554564e-04
3.702477615519798208e-07,8.340933585759423199e-04
3.765589566088425739e-07,8.445475971019738388e-04
3.829404471531026280e-07,8.551331216187378669e-04
3.894604911535786430e-07,8.658514031594415419e-04
3.961107988949965594e-07,8.767040742702886637e-04
4.028816661223823114e-07,8.876927840661247814e-04
4.097618513318325444e-07,8.988191981287898787e-04
4.167384445207351881e-07,9.100849983836067133e-04
4.237967268654257963e-07,9.214918829524888777e-04
4.309200207632051833e-07,9.330415659820506281e-04
4.380914664238874722e-07,9.447357831321260288e-04
4.453131544024238856e-07,9.565763480257523117e-04
4.525991961798857218e-07,9.685651321809265850e-04
4.599657476941545510e-07,9.807040360015882065e-04
4.674311172379076521e-07,9.929949893799337474e-04
4.750159497904577608e-07,1.005439952526667466e-03
4.827434242333281688e-07,1.018040916842677304e-03
4.906394642561406648e-07,1.030799905834536064e-03
4.987246473880135416e-07,1.043718951658688821e-03
5.069679682001592127e-07,1.056799959670125461e-03
5.153648678340829816e-07,1.070044937831035516e-03
5.239185388346069602e-07,1.083455942131404670e-03
5.326322457299095358e-07,1.097035054356709999e-03
5.415093267398825117e-07,1.110784382411960682e-03
5.505531955262228309e-07,1.124706060649822243e-03
5.597673429852973468e-07,1.138802250202872917e-03
5.691553390849830031e-07,1.153075139320030923e-03
5.787208347667272800e-07,1.167526943706552684e-03
5.884675638844457857e-07,1.182159906870141816e-03
5.983993451539591614e-07,1.196976300470326557e-03
6.085200841767924909e-07,1.211978424671703893e-03
6.188337755134682216e-07,1.227168608502111815e-03
