Pressure [MeV/fm^3],Energy Density [MeV/fm^3]
9.327466871352457015e-10,9.549199685344690323e-06
9.499726302428049196e-10,9.669170485590978360e-06
9.674860347849385760e-10,9.790648561057770387e-06
9.852908932416855111e-10,9.913652848290127105e-06
1.003391264674412339e-09,1.003820252177250593e-05
1.021791279349599629e-09,1.016431699692515867e-05
1.040495143804555951e-09,1.029201593313889644e-05
1.059507146389461591e-09,1.042131923684870623e-05
1.078831663322473333e-09,1.055224706464682062e-05
1.098473165297057896e-09,1.068481982643573184e-05
1.118436224683338669e-09,1.081905818862180079e-05
1.138725523367989688e-09,1.095498307734994198e-05
1.159345861280146884e-09,1.109261568178006390e-05
1.180302165653906515e-09,1.123197745740577628e-05
1.201599501081291854e-09,1.137309012941606394e-05
1.223243080413033486e-09,1.151597569610049991e-05
1.245238276568240144e-09,1.166065643229862945e-05
1.267590635317940930e-09,1.180715489289421317e-05
1.290305889111652025e-09,1.195549391635498948e-05
1.313389972020517295e-09,1.210569662831860555e-05
1.336849035875252144e-09,1.225778644522546708e-05
1.360689467682049981e-09,1.241178707799915915e-05
1.384917908404868222e-09,1.256772253577521056e-05
1.409541273208045415e-09,1.272561712967896420e-05
1.434566773259073234e-09,1.288549547665325279e-05
1.460001939197577195e-09,1.304738250333670869e-05
1.485854646383136255e-09,1.321130344999354609e-05
1.512133142041537955e-09,1.337728387449555617e-05
1.538846074436449196e-09,1.354534965635720932e-05
1.566002524201277449e-09,1.371552700082472201e-05
1.593612037974269245e-09,1.388784244302001301e-05
1.621684664488613294e-09,1.406232285214038080e-05
1.650230993278572402e-09,1.423899543571491362e-05
1.679262196172442291e-09,1.441788774391855870e-05
1.708790071753469407e-09,1.459902767394486887e-05
1.738827092980807112e-09,1.478244347443840738e-05
1.769386458174146632e-09,1.496816374998790702e-05
1.800482145577882968e-09,1.515621746568120674e-05
1.832128971733619317e-09,1.534663395172314313e-05
1.864342653903460154e-09,1.553944290811748436e-05
1.897139876801003688e-09,1.573467440941411961e-05
1.930538363902199278e-09,1.593235890952269645e-05
1.964556953624396437e-09,1.613252724659401750e-05
1.999215680678931894e-09,1.633521064797040931e-05
2.034535862920643274e-09,1.654044073520647627e-05
2.070540194036734846e-09,1.674824952916154061e-05
2.107252842437532079e-09,1.695866945516534400e-05
2.144699556732903710e-09,1.717173334825829815e-05
2.182907778200593790e-09,1.738747445850795831e-05
2.221906760676400345e-09,1.760592645640318991e-05
2.261727698321195894e-09,1.782712343832784120e-05
2.302403861746209355e-09,1.805109993211535151e-05
2.343970743005943441e-09,1.827789090268633151e-05
2.386466209997562508e-09,1.850753175777069087e-05
2.429828176357256469e-09,1.874005816110121335e-05
2.473909617721415356e-09,1.897550606686668626e-05
2.518717786836871308e-09,1.921391217481658410e-05
2.564262566058789266e-09,1.945531365055961525e-05
2.610553989207272325e-09,1.969974812669532757e-05
2.657602251974341877e-09,1.994725370869869017e-05
2.705417723358739299e-09,2.019786898088042713e-05
2.754010958209803953e-09,2.045163301242410589e-05
2.803392710967239299e-09,2.070858536350132214e-05
2.853573950689350525e-09,2.096876609146585183e-05
2.904565877468573257e-09,2.123221575712807145e-05
2.956379940339697251e-09,2.149897543111085950e-05
3.009027856793124038e-09,2.176908670028805654e-05
3.062521634012952085e-09,2.204259167430690350e-05
3.116873591967484943e-09,2.231953299219557288e-05
3.172096388488108727e-09,2.259995382905712787e-05
3.228203046481318244e-09,2.288389790285132210e-05
3.285206983428006299e-09,2.317140948126549037e-05
3.343122043334065940e-09,2.346253338867597022e-05
3.401962531306858934e-09,2.375731501320149780e-05
3.461743250943252129e-09,2.405580031384999407e-05
3.522479544726717268e-09,2.435803582776034423e-05
3.584187337643476117e-09,2.466406867754051510e-05
3.646883184240961850e-09,2.497394657870384378e-05
3.710584319365831265e-09,2.528771784720489324e-05
3.775308712833657432e-09,2.560543140707672148e-05
3.841075128298136847e-09,2.592713679817115676e-05
3.907903186604271448e-09,2.625288418400384727e-05
3.975813433927661917e-09,2.658272435970602355e-05
4.044827415020628378e-09,2.691670876008470472e-05
4.114967751905639271e-09,2.725488946779330030e-05
4.186258228377426655e-09,2.759731922161461662e-05
4.258723880697225853e-09,2.794405142485831099e-05
4.332391094885978307e-09,2.829514015387488065e-05
4.407287711048024520e-09,2.865064016668830742e-05
4.483443135183012454e-09,2.901060691174967232e-05
4.560888458971355537e-09,2.937509653681405405e-05
4.639656588047849196e-09,2.974416589794300859e-05
4.719782379308947534e-09,3.011787256863517444e-05
4.801302787831920918e-09,3.049627484908747676e-05
4.884257024018691370e-09,3.087943177558972221e-05
4.968686721613611415e-09,3.126740313005515283e-05
5.054636117283127671e-09,3.166024944968975061e-05
5.142152242486075327e-09,3.205803203680345745e-05
5.231285128406457286e-09,3.246081296876604787e-05
5.322088024766141941e-09,3.286865510811102598e-05
5.414617633383090177e-09,3.328162211279066008e-05
5.508934357391559045e-09,3.369977844658555684e-05
5.605102567094547623e-09,3.412318938967238665e-05
5.703190883475419011e-09,3.455192104935320927e-05
5.803272480455732102e-09,3.498604037095035722e-05
5.905425407049553845e-09,3.542561514887071218e-05
6.009732930631506191e-09,3.587071403784355532e-05
6.116283902606346331e-09,3.632140656433597621e-05
6.225173147842624549e-09,3.677776313815071888e-05
6.336410022349585982e-09,3.723985487341435405e-05
6.449548045551802056e-09,3.770775283146512584e-05
6.564533006909516171e-09,3.818152979442429969e-05
6.681389820620168994e-09,3.866125962470637166e-05
6.800143773549095856e-09,3.914701711284422587e-05
6.920820550567753882e-09,3.963887798919619375e-05
7.043446262411565251e-09,4.013691893580504381e-05
7.168047476257372327e-09,4.064121759841125343e-05
7.294651249233937093e-09,4.115185259862283267e-05
7.423285165093448439e-09,4.166890354624420729e-05
7.553977374287137399e-09,4.219245105176651237e-05
7.686756637704344630e-09,4.272257673902178345e-05
7.821652374351675797e-09,4.325936325800371497e-05
7.958694713266956901e-09,4.380289429785758814e-05
8.097914549982206529e-09,4.435325460004203808e-05
8.239343607870248520e-09,4.491052997166542496e-05
8.383014504731426133e-09,4.547480729899970933e-05
8.528960824999908325e-09,4.604617456117474550e-05
8.677217197973568265e-09,4.662472084405608287e-05
8.827819382497212311e-09,4.721053635430902650e-05
8.980804358556616805e-09,4.780371243365266336e-05
9.136210426269692008e-09,4.840434157330665977e-05
9.294077312792118415e-09,4.901251742863449597e-05
9.454446287687252613e-09,4.962833483398639711e-05
9.617360287344905969e-09,5.025188981774568773e-05
9.782864049069990409e-09,5.088327961758217464e-05
9.951004255501017194e-09,5.152260269591642743e-05
1.012182969005923776e-08,5.216995875559865645e-05
1.029539140417293385e-08,5.282544875580661326e-05
1.047174289706713535e-08,5.348917492816626743e-05
1.065094030895782312e-08,5.416124079309995581e-05
1.083304262854116771e-08,5.484175117640618507e-05
1.101811191572277188e-08,5.553081222607574296e-05
1.120621354058969785e-08,5.622853142934908515e-05
1.139741643968883366e-08,5.693501763001980887e-05
1.159179339073979658e-08,5.765038104598910586e-05
1.178942130697875823e-08,5.837473328707694749e-05
1.199038155240174392e-08,5.910818737309515906e-05
1.219476027925209243e-08,5.985085775218812931e-05
1.240264878917768586e-08,6.060286031944724712e-05
1.261414391956850674e-08,6.136431243580490655e-05
1.282934845667547956e-08,6.213533294721474798e-05
1.304837157720668562e-08,6.291604220412450510e-05
1.327132932019770174e-08,6.370656208124847800e-05
1.349834509105936573e-08,6.450701599764682183e-05
1.372955019981858117e-08,6.531752893711884761e-05
1.396508443568664793e-08,6.613822746891835809e-05
1.420509668021515483e-08,6.696923976879902841e-05
1.444974556143200447e-08,6.781069564039780026e-05
1.469920015149042387e-08,6.866272653696569510e-05
1.495364071051156543e-08,6.952546558345484200e-05
1.521325947945776058e-08,7.039904759897081389e-05
1.547826152503856888e-08,7.128360911960099214e-05
1.574886563982600467e-08,7.217928842162854130e-05
1.602530530093951102e-08,7.308622554514324239e-05
1.630780610904454394e-08,7.400456224938920923e-05
1.659575443632910709e-08,7.493443963775308009e-05
1.688883562970028097e-08,7.587600154239390149e-05
1.718712842953818777e-08,7.682939477197443410e-05
1.749071191911836748e-08,7.779476797957687189e-05
1.779966546961717119e-08,7.877227168594541260e-05
1.811406868105494645e-08,7.976205830303000608e-05
1.843400131895724942e-08,8.076428215783511581e-05
1.875954324650375046e-08,8.177909951657856222e-05
1.909077435192300506e-08,8.280666860916492016e-05
1.942777447087953625e-08,8.384714965397852568e-05
1.977062330358709141e-08,8.490070488300072691e-05
2.011940032636900907e-08,8.596749856725666476e-05
2.047418469737299304e-08,8.704769704259670605e-05
2.083505515613328732e-08,8.814146873581799101e-05
2.120208991665813779e-08,8.924898419113125835e-05
2.157536655370505100e-08,9.037041609697888419e-05
2.195496188188950235e-08,9.150593931320970481e-05
2.234095182725602059e-08,9.265573089861668112e-05
2.273341129092206623e-08,9.381997013884344947e-05
2.313241400438654663e-08,9.499883857466589793e-05
2.353803237607501092e-08,9.619252003065547664e-05
2.395033732867258411e-08,9.740120064423074737e-05
2.436939812677434507e-08,9.862506889510400283e-05
2.479528219435977169e-08,9.986431563512997590e-05
2.522805492157428182e-08,1.011191341185639707e-04
2.566777946027593104e-08,1.023897200327370861e-04
2.611451650777899076e-08,1.036762715291559319e-04
2.656832407819889642e-08,1.049789892550350226e-04
2.702925726077447099e-08,1.062980763852702651e-04
2.749736796451288912e-08,1.076337386548614289e-04
2.797270464847201648e-08,1.089861843917937478e-04
2.845531203696096017e-08,1.103556245503860408e-04
2.894523081890587091e-08,1.117422727451162888e-04
2.944249733059135712e-08,1.131463452849335293e-04
2.994714322095038991e-08,1.145680612080669808e-04
3.045919509853521133e-08,1.160076423173419358e-04
3.097867415926101837e-08,1.174653132160142290e-04
3.150559579396989093e-08,1.189413013441342418e-04
3.203996917481721200e-08,1.204358370154518708e-04
3.258179681943480861e-08,1.219491534548754148e-04
3.313107413177495819e-08,1.234814868364959134e-04
3.368778891848717320e-08,1.250330763221913313e-04
3.425192087962429574e-08,1.266041641008236647e-04
3.482344107241710680e-08,1.281949954280427141e-04
3.540231134679631703e-08,1.298058186667123374e-04
3.598848375127748341e-08,1.314368853279739295e-04
3.658189990775830808e-08,1.330884501129635407e-04
3.718249035370813322e-08,1.347607709551988686e-04
3.779017385015719036e-08,1.364541090636541226e-04
3.840485665381656527e-08,1.381687289665406502e-04
3.902643175158050989e-08,1.399048985558126225e-04
3.965477805557847259e-08,1.416628891324165371e-04
4.028975955685762249e-08,1.434429754523069544e-04
4.093122443568387988e-08,1.452454357732481979e-04
4.157900412635412745e-08,1.470705519024259817e-04
4.223076563899921089e-08,1.489186058284990477e-04
4.288305587996533868e-08,1.507898804942873127e-04
4.353621298506707246e-08,1.526846677836658382e-04
4.419071921544095893e-08,1.546032633675093436e-04
4.484715382056362125e-08,1.565459666693794032e-04
4.550620233348715701e-08,1.585130809160669699e-04
4.616866654899800645e-08,1.605049131890123979e-04
4.683547522864737039e-08,1.625217744766295816e-04
4.750769557922308902e-08,1.645639797275623732e-04
4.818654555400137357e-08,1.666318479049012501e-04
4.887340702904503537e-08,1.687257020413922184e-04
4.956983990990667907e-08,1.708458692956680365e-04
5.027759722736387509e-08,1.729926810095361301e-04
5.099864128426568016e-08,1.751664727663582979e-04
5.173516091921732440e-08,1.773675844505583142e-04
5.248958995668234185e-08,1.795963603082962397e-04
5.326462691715154635e-08,1.818531490093499659e-04
5.406325606532547845e-08,1.841383037102458948e-04
5.488793064109228400e-08,1.864521813592564256e-04
5.573409209091946855e-08,1.887951373670315790e-04
5.660080950485318998e-08,1.911675357655030424e-04
5.748857211708162746e-08,1.935697465471610749e-04
5.839786770754023806e-08,1.960021443616035883e-04
5.932918122937749773e-08,1.984651085750210083e-04
6.028299330735004641e-08,2.009590233305093569e-04
6.125977859803477060e-08,2.034842776092261397e-04
6.226000400217805682e-08,2.060412652924068996e-04
6.328412671889854759e-08,2.086303852242585115e-04
6.433259213082382848e-08,2.112520412757469968e-04
6.540583150856650184e-08,2.139066424092984811e-04
6.650425952223211295e-08,2.165946027444322667e-04
6.762827154689609228e-08,2.193163416243446701e-04
6.877824074818984625e-08,2.220722836834658758e-04
6.995451493328982348e-08,2.248628589160080768e-04
7.115741315171313905e-08,2.276885027455302440e-04
7.238722202937677971e-08,2.305496560955397182e-04
7.364419181838034941e-08,2.334467654611549383e-04
7.492853214391705710e-08,2.363802829818543224e-04
7.624040742860152390e-08,2.393506665153371886e-04
7.757993197332361254e-08,2.423583797125215432e-04
7.894716467249206573e-08,2.454038920937091743e-04
8.034210334021297574e-08,2.484876791259438842e-04
8.176467862255800747e-08,2.516102223015959528e-04
8.321474746960511432e-08,2.547720092182012412e-04
8.469208613938142469e-08,2.579735336595903052e-04
8.619638270419583159e-08,2.612152956783387182e-04
8.772722902811549732e-08,2.644978016795772541e-04
8.928411218250786305e-08,2.678215645061965714e-04
9.086640526463540798e-08,2.711871035254859717e-04
9.247335758224769004e-08,2.745949447172467807e-04
9.410408416495653685e-08,2.780456207634229631e-04
9.575755456090271596e-08,2.815396711392922826e-04
9.743258087481584776e-08,2.850776422062647380e-04
9.912780500102956195e-08,2.886600873063363049e-04
1.008416850023330128e-07,2.922875668582493747e-04
1.025741171571905911e-07,2.959606463356987804e-04
1.043332499139855964e-07,2.996798879636946677e-04
1.061208315484414556e-07,3.034458700766377512e-04
1.079372928103168180e-07,3.072591800694654627e-04
1.097830747632878865e-07,3.111204127298331282e-04
1.116586294811853470e-07,3.150301703325048257e-04
1.135644208009126503e-07,3.189890627350598683e-04
1.155009251361076620e-07,3.229977074749378432e-04
1.174686323558711450e-07,3.270567298678492578e-04
1.194680467331622082e-07,3.311667631075801985e-04
1.214996879677541464e-07,3.353284483672165357e-04
1.235640922889552018e-07,3.395424349018206340e-04
1.256618136436275543e-07,3.438093801525874565e-04
1.277934249753859287e-07,3.481299498525138904e-04
1.299595196012285215e-07,3.525048181336124095e-04
1.321607126922416753e-07,3.569346676357042572e-04
1.343976428654350641e-07,3.614201896168265727e-04
1.366709738942023606e-07,3.659620840652896183e-04
1.389813965453662388e-07,3.705610598134235741e-04
1.413296305512572908e-07,3.752178346530532786e-04
1.437164267257973843e-07,3.799331354527427139e-04
1.461425692341058631e-07,3.847076982768507579e-04
1.486088780257318137e-07,3.895422685064454764e-04
1.511162114422279203e-07,3.944376009621209734e-04
1.536654690104360023e-07,3.993944600287658588e-04
1.562575944335398959e-07,4.044136197823352684e-04
1.588935787926723557e-07,4.094958641186761451e-04
1.615744639726329780e-07,4.146419868844657391e-04
1.643013463260852593e-07,4.198527920103143924e-04
1.670753805914676562e-07,4.251290936460983103e-04
1.698977840807593118e-07,4.304717162985809207e-04
1.727698411542067257e-07,4.358814949713915067e-04
1.756929080001328725e-07,4.413592753074266502e-04
1.786684177390276432e-07,4.469059137337482151e-04
1.816978858722521323e-07,4.525222776090511594e-04
1.847829160968945414e-07,4.582092453737812471e-04
1.879252065095783991e-07,4.639677067029825629e-04
1.911245299716083836e-07,4.697985571995232871e-04
1.943752220012711878e-07,4.757026890769173186e-04
1.976776326168841893e-07,4.816810221766968107e-04
2.010327493080095423e-07,4.877344896046257520e-04
2.044416068220357067e-07,4.938640362842153242e-04
2.079052908680103809e-07,5.000706191136654192e-04
2.114249420934165675e-07,5.063552071253987546e-04
2.150017603518925436e-07,5.127187816482526401e-04
2.186370092809976816e-07,5.191623364724084078e-04
2.223320212102860459e-07,5.256868780171365706e-04
2.260882024211742133e-07,5.322934255014398356e-04
2.299070387813913093e-07,5.389830111176811432e-04
2.337901017781670512e-07,5.457566802082866120e-04
2.377390549757693750e-07,5.526154914456182570e-04
2.417556609245336513e-07,5.595605170151154691e-04
2.458417885501505568e-07,5.665928428018132419e-04
2.499994210536887658e-07,5.737135685803364596e-04
2.542306643546487715e-07,5.809238082084978560e-04
2.585381407361206138e-07,5.882246894686742490e-04
2.629366791436119687e-07,5.956173413386904938e-04
2.674299914352713060e-07,6.031029115760033754e-04
2.720134454624883684e-07,6.106825685979973316e-04
2.766815736709932446e-07,6.183574955816961661e-04
2.814279999861128391e-07,6.261288906561645901e-04
2.862453615873408173e-07,6.339979670978387362e-04
2.911252252528417999e-07,6.419659535288594785e-04
2.960579979358093113e-07,6.500340941184795749e-04
3.010328312148505312e-07,6.582036487876224756e-04
3.060375192397140359e-07,6.664758934166702120e-04
3.110583897716507340e-07,6.748521200565648238e-04
3.160786437438771022e-07,6.833336356986003659e-04
3.210686421794909398e-07,6.919217477508534959e-04
3.260226858013547394e-07,7.006177915700217192e-04
3.309422507424324582e-07,7.094231243517865049e-04
3.358295186593580363e-07,7.183391204947613259e-04
3.406874513602590276e-07,7.273671718308674910e-04
3.455198711105826873e-07,7.365086878596586398e-04
3.503315469885851072e-07,7.457650959867105633e-04
3.551282876845257696e-07,7.551378417662048259e-04
3.599170411612594255e-07,7.646283891478287053e-04
3.647060016189321499e-07,7.742382207281343475e-04
3.695047242329160118e-07,7.839688380064915776e-04
3.743242481620594094e-07,7.938217616457926605e-04
3.791772283538497486e-07,8.037985317380573307e-04
3.840780767042879814e-07,8.139007080751063574e-04
3.890431131632398302e-07,8.241298704244747354e-04
3.940907274108580367e-07,8.344876188107469691e-04
3.992415517674671009e-07,8.449755738025007193e-04
4.045186460381703060e-07,8.555953768050624225e-04
4.099476950345004903e-07,8.663486903592783903e-04
4.155572195587992493e-07,8.772371984465303710e-04
4.213788016828085288e-07,8.882626068002158828e-04
4.274473252003268559e-07,8.994266432239451806e-04
4.337493258167840932e-07,9.107310320813181981e-04
4.402239237058117998e-07,9.221775007254049772e-04
4.468746208449182312e-07,9.337678343874888497e-04
4.537056826938580610e-07,9.455038412243684746e-04
4.607213150973403028e-07,9.573873521872607734e-04
4.679256465885905064e-07,9.694202213171233991e-04
4.753227091059975216e-07,9.816043260444196148e-04
4.829164170122740485e-07,9.939415674934371468e-04
4.907105442986944620e-07,1.006433870791267806e-03
4.987086998497037372e-07,1.019083185381570826e-03
5.069143006355027328e-07,1.031891485343228989e-03
5.153305426920776963e-07,1.044860769714034150e-03
5.239603697395355756e-07,1.057993062819526401e-03
5.328064392805078423e-07,1.071290414607129361e-03
5.418710860107457674e-07,1.084754900985717514e-03
5.511562823638623050e-07,1.098388624170774149e-03
5.606635960013962947e-07,1.112193713035287967e-03
5.703941440479991453e-07,1.126172323466558163e-03
5.803485438595093066e-07,1.140326638729077325e-03
5.905268600989440621e-07,1.154658869833666930e-03
6.009285478820161939e-07,1.169171255913061241e-03
6.115523917395433923e-07,1.183866064604127818e-03
6.223964401291178559e-07,1.198745592436936723e-03
6.334579352125220845e-07,1.213812165230889828e-03
6.447332375986087913e-07,1.229068138498136615e-03
6.562177457336461076e-07,1.244515897854516721e-03
