Pressure [MeV/fm^3],Energy Density [MeV/fm^3]
9.329526510760184468e-10,9.550637041664553770e-06
9.502867545917114591e-10,9.671353689961214144e-06
9.679118679156631342e-10,9.793596183249370682e-06
9.858320575494137131e-10,9.917383807648908058e-06
1.004051458305664395e-09,1.004273609308158024e-05
1.022574278085093173e-09,1.016967281635985335e-05
1.041404803112368200e-09,1.029821400431556584e-05
1.060547403667324707e-09,1.042837993696888714e-05
1.080006540349705668e-09,1.056019115073817609e-05
1.099786770918444761e-09,1.069366844169134572e-05
1.119892757749200854e-09,1.082883286883924426e-05
1.140329275956780900e-09,1.096570575747175703e-05
1.161101222232143686e-09,1.110430870253715965e-05
1.182213624446976317e-09,1.124466357206539824e-05
1.203671652082285899e-09,1.138679251063591688e-05
1.225480627541144113e-09,1.153071794289068951e-05
1.247646038409619610e-09,1.167646257709311859e-05
1.270173550734078191e-09,1.182404940873352913e-05
1.293069023387404429e-09,1.197350172418183565e-05
1.316338523601376107e-09,1.212484310438825960e-05
1.339988343747325964e-09,1.227809742863269190e-05
1.364025019452461481e-09,1.243328887832350362e-05
1.388455349144752888e-09,1.259044194084658388e-05
1.413286415125147920e-09,1.274958141346532189e-05
1.438525606272091451e-09,1.291073240727241536e-05
1.464180642489915140e-09,1.307392035119427305e-05
1.490259601019596738e-09,1.323917099604883616e-05
1.516770944737806180e-09,1.340651041865776913e-05
1.543723552577917080e-09,1.357596502601378386e-05
1.571126752214972059e-09,1.374756155950409672e-05
1.598990355165299748e-09,1.392132709919091801e-05
1.627324694460768660e-09,1.409728906814991578e-05
1.656140665067444994e-09,1.427547523686769071e-05
1.685449767228787386e-09,1.445591372769916162e-05
1.715264152924500787e-09,1.463863301938605934e-05
1.745596675647737039e-09,1.482366195163745221e-05
1.776460943715646441e-09,1.501102972977349576e-05
1.807871377341231023e-09,1.520076592943348073e-05
1.839843269708200681e-09,1.539290050134941258e-05
1.872392852305040585e-09,1.558746377618624914e-05
1.905537364789850387e-09,1.578448646945006351e-05
1.939295129673764239e-09,1.598399968646550443e-05
1.973685632127876846e-09,1.618603492742366881e-05
2.008729605236793839e-09,1.639062409250197880e-05
2.044449121041051175e-09,1.659779948705729339e-05
2.080867687730938858e-09,1.680759382689380957e-05
2.118010353375674363e-09,1.702004024360723714e-05
2.155903816594486280e-09,1.723517229000674135e-05
2.194576544600111423e-09,1.745302394561637439e-05
2.234058899070451752e-09,1.767362962225755790e-05
2.274383270330823903e-09,1.789702416971438486e-05
2.315584220357479917e-09,1.812324288148353679e-05
2.357698635142803691e-09,1.835232150061066596e-05
2.400760827618092549e-09,1.858429621610255020e-05
2.444626883722346487e-09,1.881920333862987000e-05
2.489221908781745187e-09,1.905707977169715262e-05
2.534555868568360867e-09,1.929796304671757299e-05
2.580638877543049278e-09,1.954189116954159507e-05
2.627481208930669213e-09,1.978890262647063137e-05
2.675093305808979177e-09,2.003903639034855828e-05
2.723485793292415549e-09,2.029233192673206651e-05
2.772669491897568976e-09,2.054882920014114420e-05
2.822655432183032581e-09,2.080856868039080069e-05
2.873454870762567281e-09,2.107159134900517944e-05
2.925079307797178761e-09,2.133793870571539173e-05
2.977540506078768540e-09,2.160765277504219593e-05
3.030850511825483521e-09,2.188077611296490135e-05
3.085021677316861220e-09,2.215735181367769268e-05
3.140066685505300557e-09,2.243742351643485895e-05
3.195998576749297247e-09,2.272103541248609267e-05
3.252830777823430541e-09,2.300823225210350562e-05
3.310577133370076703e-09,2.329905935170151679e-05
3.369251939968545713e-09,2.359356260105130977e-05
3.428869983008633197e-09,2.389178847059129294e-05
3.489446576567515042e-09,2.419378401883497519e-05
3.550997606501706100e-09,2.449959689987810370e-05
3.613539576979170839e-09,2.480927537100644287e-05
3.677089660690981914e-09,2.512286830040596960e-05
3.741665752997030719e-09,2.544042517497723677e-05
3.807286530276267201e-09,2.576199610825558189e-05
3.873971512768905539e-09,2.608763184843902080e-05
3.941741132216002329e-09,2.641738378652577109e-05
4.010616804620734883e-09,2.675130396456316042e-05
4.080621008475943781e-09,2.708944508401004396e-05
4.151777368823670977e-09,2.743186051421470973e-05
4.224110747535044826e-09,2.777860430101032166e-05
4.297647340222687032e-09,2.812973117543012620e-05
4.372414780223062894e-09,2.848529656254467931e-05
4.448442250112870334e-09,2.884535659042322114e-05
4.525760601251897406e-09,2.920996809922180433e-05
4.604402481874563970e-09,2.957918865040044899e-05
4.684402474284074806e-09,2.995307653607196731e-05
4.765797241736490678e-09,3.033169078848497517e-05
4.848625685637409814e-09,3.071509118964390277e-05
4.932929113711368133e-09,3.110333828106875563e-05
5.018751419843573509e-09,3.149649337369746503e-05
5.106139276335421562e-09,3.189461855793395529e-05
5.195142339359462346e-09,3.229777671384501434e-05
5.285813468446133691e-09,3.270603152150905094e-05
5.378208960884045661e-09,3.311944747152022477e-05
5.472388801967767542e-09,3.353808987565150702e-05
5.568416932082197094e-09,3.396202487767993768e-05
5.666361531670932812e-09,3.439131946437823324e-05
5.766295325197641149e-09,3.482604147667629573e-05
5.868295905274485771e-09,3.526625962099687843e-05
5.972446078200461029e-09,3.571204348076948771e-05
6.078834232225062713e-09,3.616346352812691868e-05
6.187554729929538665e-09,3.662059113578897839e-05
6.298697572929672626e-09,3.708349856679759844e-05
6.411902558849160142e-09,3.755225806028126949e-05
6.526968549512339191e-09,3.802694311014747096e-05
6.643920793164968748e-09,3.850762861519707548e-05
6.762784911882174874e-09,3.899439042106667125e-05
6.883586926885876732e-09,3.948730533224282992e-05
7.006353286411097703e-09,3.998645112423303494e-05
7.131110896325455346e-09,4.049190655589597404e-05
7.257887153719993310e-09,4.100375138193327620e-05
7.386709983704400922e-09,4.152206636554539685e-05
7.517607879655371041e-09,4.204693329125415170e-05
7.650609947183569848e-09,4.257843497789431833e-05
7.785745952102433666e-09,4.311665529177727361e-05
7.923046372700815439e-09,4.366167916002912662e-05
8.062542456641508939e-09,4.421359258410626099e-05
8.204266282828842938e-09,4.477248265349122744e-05
8.348250828611017930e-09,4.533843755957180555e-05
8.494530042706732869e-09,4.591154660970631784e-05
8.643138924270891642e-09,4.649190024147836087e-05
8.794113608541034237e-09,4.707959003714408370e-05
8.947491459534447009e-09,4.767470873827532764e-05
9.103311170296237480e-09,4.827735026060207612e-05
9.261612871230287228e-09,4.888760970905758945e-05
9.422438247079110945e-09,4.950558339302991062e-05
9.585830663154279784e-09,5.013136884182342861e-05
9.751835301457119030e-09,5.076506482033424621e-05
9.920499307369606024e-09,5.140677134494338454e-05
1.009187194763795104e-08,5.205658969963191009e-05
1.026600478041638215e-08,5.271462245232184690e-05
1.044295183818663660e-08,5.338097347144783413e-05
1.062276982441881138e-08,5.405574794276335742e-05
1.080551832489317460e-08,5.473905238638654159e-05
1.099126003465885521e-08,5.543099467409024796e-05
1.118006100166536383e-08,5.613168404684130774e-05
1.137199088816645633e-08,5.684123113259410251e-05
1.156712325106270278e-08,5.755974796434387209e-05
1.176553584242039289e-08,5.828734799844502852e-05
1.196731093147932972e-08,5.902414613320037829e-05
1.217253564954163202e-08,5.977025872772715495e-05
1.238130235921763232e-08,6.052580362110585906e-05
1.259370904959384857e-08,6.129090015181837682e-05
1.280985975898199298e-08,6.206566917748196398e-05
1.302986502700736745e-08,6.285023309488612189e-05
1.325384237789994937e-08,6.364471586033910815e-05
1.348191683696269422e-08,6.444924301033195591e-05
1.371422148230885734e-08,6.526394168252753016e-05
1.395089803408427582e-08,6.608894063708265095e-05
1.419209748352173694e-08,6.692437027831156407e-05
1.443798076431309455e-08,6.777036267669989372e-05
1.468871946893134762e-08,6.862705159127762864e-05
1.494449661268962970e-08,6.949457249236085901e-05
1.520550744848751676e-08,7.037306258467236066e-05
1.547196033536797330e-08,7.126266083085087933e-05
1.574407766419064836e-08,7.216350797536030934e-05
1.602209684391998236e-08,7.307574656880963580e-05
1.630624909276819703e-08,7.399952092787202677e-05
1.659592056738984995e-08,7.493497473907814635e-05
1.689078701757430289e-08,7.588225443518538014e-05
1.719092861740232362e-08,7.684150950230286110e-05
1.749642589182585255e-08,7.781289131598884991e-05
1.780735965995614263e-08,7.879655316520521981e-05
1.812381097413773824e-08,7.979265027658429996e-05
1.844586105457880344e-08,8.080133983901191292e-05
1.877359121929748704e-08,8.182278102853206769e-05
1.910708280913162089e-08,8.285713503357802485e-05
1.944641710754697076e-08,8.390456508053459892e-05
1.979167525496586898e-08,8.496523645963717324e-05
2.014293815732457820e-08,8.603931655121231994e-05
2.050028638855338228e-08,8.712697485226582534e-05
2.086380008665819037e-08,8.822838300342360955e-05
2.123355884306688569e-08,8.934371481623096147e-05
2.160964158488697463e-08,9.047314630081632308e-05
2.199212644970400907e-08,9.161685569392553213e-05
2.238109065253175532e-08,9.277502348733258116e-05
2.277661034450665064e-08,9.394783245663354705e-05
2.317876046289846473e-08,9.513546769042981698e-05
2.358761457198898316e-08,9.633811661990796969e-05
2.400324469434809343e-08,9.755596904882274964e-05
2.442572113201396948e-08,9.878921718389024897e-05
2.485511227706025100e-08,1.000380556655994289e-04
2.529148441100760030e-08,1.013026815994486215e-04
2.573490149251087401e-08,1.025832945876154270e-04
2.618542493272569761e-08,1.038800967610681807e-04
2.664311335772893872e-08,1.051932928121269425e-04
2.710802235733757837e-08,1.065230900274830641e-04
2.758020421963871535e-08,1.078696983216861146e-04
2.805970765050983252e-08,1.092333302711074894e-04
2.854657747737409573e-08,1.106142011483900943e-04
2.904085433639848473e-08,1.120125289573943627e-04
2.954257434230447510e-08,1.134285344686504070e-04
3.005176873992106722e-08,1.148624412553276317e-04
3.056846353656735202e-08,1.163144757297320816e-04
3.109267911430838611e-08,1.177848671803432629e-04
3.162442982108187632e-08,1.192738478094029986e-04
3.216372353964423118e-08,1.207816527710672019e-04
3.271056123323491261e-08,1.223085202101349873e-04
3.326493646680378786e-08,1.238546913013672624e-04
3.382683490259152152e-08,1.254204102894090303e-04
3.439623376879402658e-08,1.270059245293300677e-04
3.497310129998145702e-08,1.286114845277987347e-04
3.555739614787753900e-08,1.302373439849041257e-04
3.614906676103881683e-08,1.318837598366437024e-04
3.674805073190221931e-08,1.335509922980925924e-04
3.735427410959615656e-08,1.352393049072723064e-04
3.796765067683319798e-08,1.369489645697376040e-04
3.858808118912101381e-08,1.386802416039004267e-04
3.921545257444404928e-08,1.404334097871107949e-04
3.984963709147898548e-08,1.422087464025160520e-04
4.049049144431429722e-08,1.440065322867196821e-04
4.113785585154641288e-08,1.458270518782628735e-04
4.179144811879882990e-08,1.476705931061156806e-04
4.244731239521746984e-08,1.495374416330775625e-04
4.310377841124359033e-08,1.514278893084886242e-04
4.376127646894446446e-08,1.533422346695999380e-04
4.442033028147194949e-08,1.552807800638652993e-04
4.508156611175864565e-08,1.572438317004435943e-04
4.574572259074041356e-08,1.592316997025938188e-04
4.641366125923802252e-08,1.612446981609896358e-04
4.708637788028329174e-08,1.632831451879813631e-04
4.776501457147972494e-08,1.653473629728349358e-04
4.845087280995263121e-08,1.674376778379782005e-04
4.914542736557770757e-08,1.695544202962874481e-04
4.985034122149010196e-08,1.716979251094474411e-04
5.056748154437723242e-08,1.738685313474203368e-04
5.129893677075900124e-08,1.760665824490613169e-04
5.204703487936933698e-08,1.782924262839190863e-04
5.281436292388431461e-08,1.805464152152628230e-04
5.360378790460838034e-08,1.828289061643783209e-04
5.441847906234133554e-08,1.851402606761783488e-04
5.525823263239524714e-08,1.874808417169989848e-04
5.611860733213589732e-08,1.898510137917128573e-04
5.700000778276917275e-08,1.922511509236715904e-04
5.790293161565636884e-08,1.946816319608971209e-04
5.882787435169853721e-08,1.971428405493001702e-04
5.977532792743561673e-08,1.996351651943657096e-04
6.074577908307307310e-08,2.021589993237053544e-04
6.173970760266216009e-08,2.047147413504912415e-04
6.275758439604817283e-08,2.073027947377900377e-04
6.379986941155169995e-08,2.099235680638147266e-04
6.486700936766107033e-08,2.125774750881130365e-04
6.595943529128693274e-08,2.152649348187116206e-04
6.707755984936124418e-08,2.179863715802369129e-04
6.822177445974767379e-08,2.207422150830320139e-04
6.939244616656989612e-08,2.235329004932929157e-04
7.058991426415256274e-08,2.263588685042452369e-04
7.181448665280511586e-08,2.292205654083852360e-04
7.306643590866024907e-08,2.321184431708096091e-04
7.434599504869853592e-08,2.350529595036589519e-04
7.565335297095171238e-08,2.380245779417008002e-04
7.698864954867048783e-08,2.410337679190804102e-04
7.835197035596706130e-08,2.440810048472660311e-04
7.974334100109617407e-08,2.471667701942209527e-04
8.116272104211106749e-08,2.502915515648295418e-04
8.260999745812656967e-08,2.534558427826122851e-04
8.408497764782825238e-08,2.566601439727622864e-04
8.558738192518402164e-08,2.599049616465374493e-04
8.711683548053701987e-08,2.631908087870455889e-04
8.867285977337978698e-08,2.665182049364605275e-04
9.025486332112344094e-08,2.698876762847079351e-04
9.186213184608037039e-08,2.732997557596640657e-04
9.349381774066130683e-08,2.767549831189082088e-04
9.514892880844828446e-08,2.802539050430767793e-04
9.682631623633308899e-08,2.837970752308646900e-04
9.852466175029916907e-08,2.873850544957245296e-04
1.002424639046676272e-07,2.910184108643138552e-04
1.019782070389490612e-07,2.946977194370232621e-04
1.037383259114994866e-07,2.984235523396079419e-04
1.055270932337607207e-07,3.021964925703467795e-04
1.073449442396800506e-07,3.060171357217912895e-04
1.091923245046289310e-07,3.098860849274191493e-04
1.110696906446323351e-07,3.138039509584678185e-04
1.129775110730510667e-07,3.177713523221216223e-04
1.149162668188686718e-07,3.217889153610787537e-04
1.168864524110062242e-07,3.258572743545267076e-04
1.188885768333694163e-07,3.299770716205515731e-04
1.209231645556397064e-07,3.341489576200130582e-04
1.229907566451368285e-07,3.383735910619135455e-04
1.250919119654234975e-07,3.426516390102938127e-04
1.272272084676804457e-07,3.469837769926866432e-04
1.293972445812626377e-07,3.513706891101635635e-04
1.316026407102501577e-07,3.558130681490076128e-04
1.338440408432366284e-07,3.603116156940510133e-04
1.361221142840498216e-07,3.648670422437135744e-04
1.384375575115787764e-07,3.694800673267812415e-04
1.407910961773916591e-07,3.741514196209676691e-04
1.431834872503630989e-07,3.788818370732978500e-04
1.456155213181029665e-07,3.836720670223621563e-04
1.480880250555773326e-07,3.885228663224831293e-04
1.506018638719529148e-07,3.934350014698448925e-04
1.531579447473703718e-07,3.984092487306374998e-04
1.557572192720637633e-07,4.034463942712618648e-04
1.584006869010032819e-07,4.085472342906580449e-04
1.610893984380330122e-07,4.137125751548071891e-04
1.638244597643238816e-07,4.189432335334701942e-04
1.666070358268547155e-07,4.242400365392238939e-04
1.694383549035803096e-07,4.296038218688588033e-04
1.723197131629451194e-07,4.350354379472086744e-04
1.752524795364590299e-07,4.405357440734794083e-04
1.782381009241685615e-07,4.461056105701540321e-04
1.812781077540396432e-07,4.517459189345504481e-04
1.843741199175169828e-07,4.574575619931123467e-04
1.875278531048447915e-07,4.632414440585193717e-04
1.907397858207603281e-07,4.690984774778421363e-04
1.940040785160904644e-07,4.750295690882860118e-04
1.973206047388381897e-07,4.810356528043302233e-04
2.006903648572286855e-07,4.871176773885623618e-04
2.041144072561697802e-07,4.932766036917323035e-04
2.075938321257869059e-07,4.995134048142095377e-04
2.111297955310930025e-07,5.058290662701157630e-04
2.147235137814618946e-07,5.122245861542086467e-04
2.183762681197195198e-07,5.187009753115965445e-04
2.220894097518762856e-07,5.252592575103641947e-04
2.258643652398081471e-07,5.319004696171970989e-04
2.297026422805476359e-07,5.386256617760925170e-04
2.336058358972814211e-07,5.454358975902531392e-04
2.375756350686678315e-07,5.523322543072615521e-04
2.416138298246926888e-07,5.593158230076373085e-04
2.457223188389762846e-07,5.663877087968865369e-04
2.499031175492426447e-07,5.735490310011578247e-04
2.541583668395543306e-07,5.808009233666214677e-04
2.584906844573885537e-07,5.881445339465928577e-04
2.629149638423563926e-07,5.955810123037119522e-04
2.674351832168219199e-07,6.031115268184707168e-04
2.720466275838409088e-07,6.107372671362826895e-04
2.767437261234865958e-07,6.184594380215181677e-04
2.815199768258487206e-07,6.262792595557865709e-04
2.863678658233458036e-07,6.341979673392576051e-04
2.912787810890516146e-07,6.422168126950947385e-04
2.962429201481028792e-07,6.503370628770770981e-04
3.012491914285135489e-07,6.585600012804922968e-04
3.062851088558021345e-07,6.668869276563768426e-04
3.113366792726954852e-07,6.753191583291974802e-04
3.163861801995160194e-07,6.838580244194028849e-04
3.214038938938245755e-07,6.925048578103027526e-04
3.263852984396995043e-07,7.012610201354442085e-04
3.313319451745413603e-07,7.101278945073189776e-04
3.362461135617988822e-07,7.191068816770933769e-04
3.411308885306150844e-07,7.281994002723180155e-04
3.459902437318221442e-07,7.374068870387395737e-04
3.508291310997964654e-07,7.467307970863448731e-04
3.556535771332743779e-07,7.561726041397534657e-04
3.604707863331838412e-07,7.657338007931094445e-04
3.652892522619224367e-07,7.754158987696024722e-04
3.701188767164127183e-07,7.852204291857757795e-04
3.749710975367550751e-07,7.951489428207714032e-04
3.798590256034762713e-07,8.052030103906800650e-04
3.847975916093298805e-07,8.153842228281687294e-04
3.898037032264360429e-07,8.256941915675616991e-04
3.948964133263680221e-07,8.361345488355719207e-04
4.000970999496935532e-07,8.467069479478759242e-04
4.054296587625964430e-07,8.574130636117451151e-04
4.109207087816410544e-07,8.682545922349515621e-04
4.165998121936392139e-07,8.792332522411807315e-04
4.224997091460681133e-07,8.903507843921960917e-04
4.286561926321921247e-07,9.016089519223748332e-04
4.350307016852922709e-07,9.130095026248873482e-04
4.415799534806743652e-07,9.245542103907462318e-04
4.483083275347498345e-07,9.362448979871255527e-04
4.552201556003409564e-07,9.480834112932040939e-04
4.623197046472935371e-07,9.600716196009420091e-04
4.696111582834520580e-07,9.722114159203880347e-04
4.770985965060189052e-07,9.845047172896183047e-04
4.847859736664226981e-07,9.969534650894160566e-04
4.926770945245322286e-07,1.009559625362819839e-03
5.007755882603163044e-07,1.022325189139647230e-03
5.090848803028800530e-07,1.035252172766134042e-03
5.176081618281515110e-07,1.048342618239814662e-03
5.263483567673343635e-07,1.061598593549782209e-03
5.353080861585551303e-07,1.075022193022475087e-03
5.444896296638821942e-07,1.088615537673141061e-03
5.538948840630459068e-07,1.102380775563133707e-03
5.635253185237276983e-07,1.116320082163212287e-03
5.733819264361436851e-07,1.130435660723010756e-03
5.834651735868286439e-07,1.144729742646861254e-03
5.937749424329572741e-07,1.159204587876160346e-03
6.043104722241932705e-07,1.173862485278478768e-03
6.150702947038966304e-07,1.188705753043615282e-03
6.260521651054906905e-07,1.203736739086821213e-03
6.372529881428346943e-07,1.218957821459417312e-03
6.486687386755548584e-07,1.234371408767044685e-03
6.602943767113441823e-07,1.249979940595803305e-03
6.721237563872442783e-07,1.265785887946533749e-03
6.841495285507895567e-07,1.281791753677527729e-03
