Pressure [MeV/fm^3],Energy Density [MeV/fm^3]
2.157887770774533537e-08,9.515034403908286225e-05
2.191686570103007695e-08,9.625014524277087605e-05
2.226012893551765174e-08,9.736266793810160493e-05
2.260735656163781137e-08,9.848809814960066643e-05
2.295990764117561701e-08,9.962654667705976542e-05
2.331930747215523014e-08,1.007781255362142665e-04
2.368432771557594238e-08,1.019430101733620811e-04
2.405355960477780855e-08,1.031213812266270664e-04
2.442842608356461666e-08,1.043133551345728474e-04
2.481055745887747273e-08,1.055190248780308053e-04
2.519867787117154904e-08,1.067386261411452464e-04
2.559142728825807150e-08,1.079724060740408774e-04
2.598988762900464186e-08,1.092204851690719111e-04
2.639501227677515868e-08,1.104830217640310265e-04
2.680641069152098399e-08,1.117601444633705608e-04
2.722363432713809556e-08,1.130519461308506933e-04
2.764755113079777517e-08,1.143586611572781957e-04
2.807955283746902887e-08,1.156805327250607100e-04
2.851836530931998290e-08,1.170176885320246027e-04
2.896240514392506066e-08,1.183702566261388438e-04
2.941277679334030112e-08,1.197384569988885992e-04
2.987030827723362659e-08,1.211225161327943102e-04
3.033498116086448441e-08,1.225225913503170385e-04
3.080715992498605137e-08,1.239388485221891759e-04
3.128665598584810145e-08,1.253714820543641616e-04
3.177305525947680771e-08,1.268206929274575279e-04
3.226706058858491729e-08,1.282866453400374827e-04
3.276985249902707273e-08,1.297694776372137538e-04
3.328037054233181310e-08,1.312694424466807669e-04
3.379676957036227167e-08,1.327868152056488609e-04
3.432105381482892047e-08,1.343217500335035024e-04
3.485630620488147030e-08,1.358744078864075589e-04
3.540000603081996341e-08,1.374450104027606396e-04
3.594837941676734528e-08,1.390337761983744772e-04
3.650470354332959795e-08,1.406409019758393501e-04
3.707353347753057850e-08,1.422665765836129091e-04
3.765165989188862824e-08,1.439110363107928988e-04
3.823491217871409485e-08,1.455745281985209856e-04
3.882613641175177169e-08,1.472572562664192753e-04
3.942833115002927187e-08,1.489594281350031389e-04
4.004049092327619327e-08,1.506812766785715224e-04
4.066227090383785905e-08,1.524230397060486169e-04
4.129369586677482135e-08,1.541849366183285764e-04
4.193431612976189227e-08,1.559671784035396281e-04
4.258471101149547226e-08,1.577700232603016731e-04
4.324567599715726301e-08,1.595937443467197064e-04
4.391690685887682227e-08,1.614385661406715828e-04
4.459821170309866130e-08,1.633047258632749975e-04
4.528943117657116255e-08,1.651924551462591556e-04
4.598943249118807435e-08,1.671019629158577383e-04
4.669989970123671185e-08,1.690335284584027083e-04
4.742376516514144393e-08,1.709874419274269662e-04
4.815964563510831325e-08,1.729639475875670242e-04
4.890592674347375702e-08,1.749632951888308561e-04
4.966355699281348292e-08,1.769857577246690611e-04
5.043373678987729683e-08,1.790316166481278654e-04
5.121549701635796839e-08,1.811011336711661765e-04
5.200676803173288756e-08,1.831945727385108822e-04
5.280926386937299230e-08,1.853122105309327246e-04
5.362507862664913949e-08,1.874543187863862161e-04
5.445437027189378883e-08,1.896211888722084608e-04
5.529917898543494939e-08,1.918131222080967659e-04
5.615745618599185617e-08,1.940304020182204820e-04
5.702496969258686164e-08,1.962733215291892963e-04
5.790403514036830300e-08,1.985421638602942679e-04
5.879686336229471198e-08,2.008371857525236210e-04
5.970391126500547863e-08,2.031587299349058896e-04
6.062793604930703006e-08,2.055071852483366182e-04
6.156695475222962164e-08,2.078828096183198680e-04
6.251713746449730130e-08,2.102858274033777425e-04
6.348045749714293330e-08,2.127166071978732812e-04
6.445867370358942642e-08,2.151755503506034813e-04
6.545243276507802442e-08,2.176629412663698914e-04
6.646474894685879002e-08,2.201790519988810113e-04
6.749354910546237876e-08,2.227242387860623926e-04
6.853461362453233120e-08,2.252988636055980006e-04
6.959003330585018076e-08,2.279032601168652790e-04
7.066175788293613909e-08,2.305377799715191260e-04
7.175046579455522938e-08,2.332027516402063281e-04
7.285946834596307112e-08,2.358984675855724852e-04
7.398659200933006958e-08,2.386253265491152897e-04
7.512717799861297576e-08,2.413837740443123864e-04
7.628344466453901533e-08,2.441741377863089978e-04
7.745755642189854332e-08,2.469967343882749963e-04
7.865023188768973168e-08,2.498519602202078070e-04
7.986513676571673659e-08,2.527402315929651788e-04
8.109997542813662170e-08,2.556619051245331213e-04
8.234974925755680099e-08,2.586173147181969724e-04
8.361640697600143222e-08,2.616068752485211767e-04
8.490115250013229365e-08,2.646310222766555986e-04
8.620534194906880206e-08,2.676901393603389767e-04
8.753386567223658938e-08,2.707846077486337957e-04
8.888449570006658925e-08,2.739148465654348257e-04
9.025275119113153296e-08,2.770812838946217719e-04
9.164053982282056517e-08,2.802843377066759393e-04
9.305044843346118301e-08,2.835244489580710284e-04
9.448144760746668926e-08,2.868020225095316289e-04
9.593005861749980148e-08,2.901174209739905310e-04
9.739996554756995852e-08,2.934711177914293978e-04
9.890133168191112984e-08,2.968636199382275096e-04
1.004292715217712988e-07,3.002953674311906272e-04
1.019731606785906195e-07,3.037668424485432360e-04
1.035369575869191865e-07,3.072784724447192727e-04
1.051255358494042343e-07,3.108306259008456959e-04
1.067386720255520212e-07,3.144238131041036141e-04
1.083781151935487884e-07,3.180585871813493564e-04
1.100437821407895607e-07,3.217354032126544224e-04
1.117357647007277583e-07,3.254547145184318664e-04
1.134540546931798964e-07,3.292170189718951565e-04
1.151979424403883095e-07,3.330228109353816006e-04
1.169673145042325116e-07,3.368726002636248805e-04
1.187596007696652003e-07,3.407669220851770354e-04
1.205769857249370458e-07,3.447062798009127072e-04
1.224242529325053471e-07,3.486911672926743823e-04
1.243016633476684240e-07,3.527221236434979214e-04
1.262136846588597734e-07,3.567997198361835365e-04
1.281573038080169037e-07,3.609244680427727676e-04
1.301219937420732367e-07,3.650968276530501826e-04
1.321116803083370022e-07,3.693173877470145379e-04
1.341324879396465695e-07,3.735867965036695224e-04
1.361846841506269856e-07,3.779055970405390181e-04
1.382733888796851555e-07,3.822743467239358506e-04
1.403963750156018894e-07,3.866936145255638101e-04
1.425455104588996941e-07,3.911639348001855372e-04
1.447248739513513113e-07,3.956859173139143935e-04
1.469452008100784689e-07,4.002602052238632326e-04
1.492028054762996726e-07,4.048873920931667330e-04
1.514874461543248122e-07,4.095680783757958904e-04
1.538025660548462881e-07,4.143028818285564839e-04
1.561534792334650964e-07,4.190924106410539619e-04
1.585408078579658709e-07,4.239373116941714940e-04
1.609704954468213283e-07,4.288382851938618697e-04
1.634402223562315092e-07,4.337959498415049314e-04
1.659412175295070925e-07,4.388108670665920633e-04
1.684764456727292423e-07,4.438837255442492518e-04
1.710504073610724971e-07,4.490152457242494160e-04
1.736642640565997910e-07,4.542061035413382311e-04
1.763261367060684839e-07,4.594570235167263019e-04
1.790329113551949356e-07,4.647686766946725794e-04
1.817722254947922748e-07,4.701416720720478452e-04
1.845478459779875623e-07,4.755767518007880884e-04
1.873677392085407757e-07,4.810747320258070589e-04
1.902301975895477460e-07,4.866363145599366183e-04
1.931291674336004592e-07,4.922621799866994108e-04
1.960681651030498650e-07,4.979530825739957988e-04
1.990593156366270651e-07,5.037097883050989031e-04
2.021005786889486162e-07,5.095330580268972540e-04
2.051871090143255453e-07,5.154236730363267452e-04
2.083203628158718937e-07,5.213824084944556313e-04
2.115012605596125653e-07,5.274100500761655114e-04
2.147304352599864474e-07,5.335073828814282902e-04
2.180095488431015029e-07,5.396751333835048559e-04
2.213379965925390182e-07,5.459141500611393956e-04
2.247079571569533050e-07,5.522254072242279094e-04
2.281247148823077479e-07,5.586096993176284950e-04
2.316125542187157597e-07,5.650677429450140380e-04
2.351655060512648006e-07,5.716004178056220382e-04
2.387611022533995701e-07,5.782086493764625190e-04
2.424032229618825033e-07,5.848933037613048046e-04
2.460934342860779315e-07,5.916552734924367726e-04
2.498343662298812643e-07,5.984954430258309678e-04
2.536424572185219066e-07,6.054146598705727623e-04
2.575143160596500392e-07,6.124138514561849834e-04
2.614343655528479599e-07,6.194939902908444844e-04
2.654074961547866037e-07,6.266560033348660868e-04
2.694518373409188638e-07,6.339008158980377833e-04
2.735640233869678534e-07,6.412293904157552763e-04
2.777275654076935217e-07,6.486427164343204531e-04
2.819473950583894555e-07,6.561417704781997463e-04
2.862426757249330055e-07,6.637275375783888371e-04
2.906100928057698390e-07,6.714010201879564137e-04
2.950331408430688038e-07,6.791632297625712624e-04
2.995155163296157888e-07,6.870151891889808007e-04
3.040667335136604759e-07,6.949579046964272097e-04
3.086872794466883532e-07,7.029924398797354410e-04
3.133828671280806345e-07,7.111199557769393295e-04
3.181534687694757589e-07,7.193415041175808735e-04
3.229962551684400069e-07,7.276580578025843926e-04
3.279120357470472720e-07,7.360707319219407171e-04
3.328971878993915839e-07,7.445806891765734516e-04
3.379535550532409014e-07,7.531890472727101890e-04
3.430873360080045224e-07,7.618969256851182642e-04
3.482989726296851320e-07,7.707054817370321024e-04
3.535895854535564526e-07,7.796159346383865372e-04
3.589601748315952180e-07,7.886294513569920388e-04
3.644121292667090881e-07,7.977471583983739706e-04
3.699464805479530154e-07,8.069702720543121908e-04
3.755646771282435754e-07,8.163000789864506817e-04
3.812677824240308078e-07,8.257377990511596561e-04
3.870573168706615974e-07,8.352845920868273146e-04
3.929343705411877551e-07,8.449417326746134571e-04
3.989004756212619079e-07,8.547105772087421277e-04
4.049567552205766198e-07,8.645924063645662018e-04
4.111047587762133397e-07,8.745884743587527266e-04
4.173456501134386340e-07,8.847001101790340650e-04
4.236810952818610602e-07,8.949287095932193827e-04
4.301122859892874805e-07,9.052756155670040354e-04
4.366425389664223133e-07,9.157421283211800590e-04
4.432715871520385075e-07,9.263296400523757246e-04
4.499832860353995370e-07,9.370396302231359100e-04
4.567810407837585326e-07,9.478734967658292198e-04
4.636857695583644857e-07,9.588324714773245865e-04
4.706982753394633186e-07,9.699180433498129491e-04
4.778310791966108337e-07,9.811321595900976585e-04
4.850843712063720340e-07,9.924762412759332089e-04
4.924468796719446198e-07,1.003951145431260890e-03
4.999199218205562032e-07,1.015558461800351604e-03
5.074892585057011243e-07,1.027300457881364856e-03
5.151585942050963198e-07,1.039178600213000589e-03
5.229627665469304915e-07,1.051193521427380186e-03
5.309000738748439202e-07,1.063346874929622628e-03
5.389379236515684117e-07,1.075640816433382158e-03
5.470808564801034965e-07,1.088076973274923216e-03
5.553690701586441267e-07,1.100657638360909817e-03
5.637999618759755041e-07,1.113384389613445704e-03
5.723138012622365216e-07,1.126257316241541066e-03
5.809172646002224402e-07,1.139278232482114584e-03
5.896963767035421010e-07,1.152450456475489311e-03
5.986480492605213882e-07,1.165775643323966552e-03
6.077120455304538409e-07,1.179254599448775363e-03
6.168926814236300799e-07,1.192889146337275776e-03
6.262141195451229887e-07,1.206681404250232927e-03
6.356772615059463341e-07,1.220633186282200650e-03
6.452814285860711592e-07,1.234746331408858363e-03
6.550291798858086823e-07,1.249022718359910208e-03
6.649477039936865518e-07,1.263464630508913259e-03
6.750369152488795294e-07,1.278073945323415480e-03
6.852286413366425998e-07,1.292851362149668570e-03
6.955266943446949824e-07,1.307798867833148216e-03
7.060103913675921780e-07,1.322919734748921735e-03
7.166802129446231706e-07,1.338215941421689757e-03
7.275084040856627862e-07,1.353689209114866633e-03
7.384976807929132101e-07,1.369341588038113476e-03
7.496548028799457307e-07,1.385174630030236833e-03
7.609812620846560734e-07,1.401190428408679266e-03
7.724479570705902557e-07,1.417391478512387967e-03
7.840569113439878214e-07,1.433779921476035927e-03
7.958720548510518326e-07,1.450358280045337730e-03
8.078959208679532296e-07,1.467128750581097110e-03
8.200992341479899624e-07,1.484092728775867351e-03
8.324845017310734711e-07,1.501252446199233823e-03
8.450466915050433160e-07,1.518610614208388675e-03
8.577874122900676396e-07,1.536169522441880545e-03
8.706861306967444874e-07,1.553931552317304237e-03
8.837436535680148556e-07,1.571899055054166820e-03
8.970447632955372173e-07,1.590074503363631724e-03
9.105945325131289383e-07,1.608460308912610260e-03
9.243475215716320388e-07,1.627058723467464125e-03
9.383063270228696312e-07,1.645872203936921217e-03
9.524409160942661493e-07,1.664903092957429644e-03
9.667512928488385297e-07,1.684153892265844192e-03
9.812861251853767536e-07,1.703627600182377414e-03
9.960490391069827860e-07,1.723326816852694277e-03
1.011033298520016416e-06,1.743253361190957732e-03
1.026241624039072596e-06,1.763409817100134802e-03
1.041671099487443108e-06,1.783799634985410798e-03
1.057323749626559894e-06,1.804425536030963666e-03
1.073217098115438023e-06,1.825290385378011866e-03
1.089354306370306870e-06,1.846396988848169728e-03
1.105769221348701985e-06,1.867747115958199970e-03
1.122470128427153534e-06,1.889343509379152065e-03
1.139346495986556042e-06,1.911189874610798485e-03
1.156390383788011275e-06,1.933289136340228098e-03
1.173734791945517022e-06,1.955644084042580059e-03
1.191391164965225030e-06,1.978257687084451159e-03
1.209301531457840953e-06,2.001132525002792192e-03
1.227466026856793628e-06,2.024271561930240850e-03
1.245911889368351164e-06,2.047678744198339063e-03
1.264644131962936095e-06,2.071357276586088467e-03
1.283660276154863236e-06,2.095308939255102233e-03
1.302965454420952611e-06,2.119536739295393556e-03
1.322512198587534909e-06,2.144045457250600036e-03
1.342294318906291774e-06,2.168838502195873617e-03
1.362423957979767934e-06,2.193917764616385921e-03
1.382918165286649779e-06,2.219286417328508558e-03
1.403667040054133960e-06,2.244948815462540891e-03
1.424659823746090701e-06,2.270908441623161519e-03
1.446020700438203309e-06,2.297168348676905964e-03
1.467769411963429516e-06,2.323732017121726140e-03
1.489790281563478625e-06,2.350602393450578788e-03
1.512071525654793777e-06,2.377782892581815043e-03
1.534721816008978169e-06,2.405278370322684253e-03
1.557759441384727742e-06,2.433092653293977923e-03
1.581083727414866296e-06,2.461228134206687630e-03
1.604679296575298776e-06,2.489688352986857509e-03
1.628707641908497519e-06,2.518478132491750853e-03
1.653199420656411062e-06,2.547601416085762231e-03
1.678001297923981878e-06,2.577061432608588123e-03
1.703096653686645014e-06,2.606862033903726769e-03
1.728578977517568821e-06,2.637006985238755062e-03
1.754461919934512950e-06,2.667500165320826205e-03
1.780720748213670665e-06,2.698346596298581597e-03
1.807355593494171310e-06,2.729550560254521453e-03
1.834399870178003676e-06,2.761115034598863888e-03
1.861863543906266714e-06,2.793044007747230544e-03
1.889725898047830274e-06,2.825342507122603677e-03
1.917986604274113626e-06,2.858014943296299445e-03
1.946685010952877312e-06,2.891064841667055976e-03
1.975837384286119977e-06,2.924496382036403767e-03
2.005358242961469461e-06,2.958315070491075206e-03
2.035227109009809478e-06,2.992525586541878654e-03
2.065593257410144118e-06,3.027131623339249320e-03
2.096485916482482153e-06,3.062137634934804752e-03
2.127857041955155760e-06,3.097548569077028004e-03
2.159716383586781731e-06,3.133369148911942671e-03
2.191982551749911998e-06,3.169603954070357443e-03
2.224637049733177197e-06,3.206257729888857804e-03
2.257772525507668748e-06,3.243335560996968899e-03
2.291397219791641189e-06,3.280842388960057698e-03
2.325599430524131775e-06,3.318783117521175146e-03
2.360419555262291571e-06,3.357162768811071136e-03
2.395687238087270936e-06,3.395986366017724085e-03
2.431370393866749111e-06,3.435259058269639516e-03
2.467577851675541503e-06,3.474985776242777401e-03
2.504318869293746838e-06,3.515171657479412154e-03
2.541693279000299453e-06,3.555822609047993611e-03
2.579757065823464528e-06,3.596944164481954021e-03
2.618242217421785052e-06,3.638541178409752594e-03
2.657075210302153178e-06,3.680619018165943133e-03
2.696541116076236356e-06,3.723183606514150670e-03
2.736690458824308215e-06,3.766240614034318743e-03
2.777533050667285690e-06,3.809795782627578564e-03
2.819120080793590072e-06,3.853854915856731907e-03
2.861171611811872462e-06,3.898423624448319694e-03
2.903601302882608217e-06,3.943507743465019325e-03
2.946723256395078366e-06,3.989113388781052351e-03
2.990609994314890687e-06,4.035246631669366264e-03
3.035157797068814523e-06,4.081913400060665532e-03
3.080370843899811128e-06,4.129119774175507226e-03
3.126175266577618116e-06,4.176872441815853744e-03
3.172529600305048247e-06,4.225177866201208950e-03
3.219662484556731599e-06,4.274041990014149778e-03
3.267648054547928987e-06,4.323471192567977794e-03
3.316340881298972854e-06,4.373472015612201412e-03
3.365731757185406748e-06,4.424051022747021306e-03
3.415773219277160533e-06,4.475215092698818509e-03
3.466438998866503880e-06,4.526970994370216328e-03
3.517848126899050825e-06,4.579325828280149738e-03
3.570031145689771881e-06,4.632286707043151673e-03
3.622987424286811700e-06,4.685859741538986149e-03
3.676726828084158444e-06,4.740051629094627419e-03
3.731257463380605920e-06,4.794870779003142063e-03
3.786568993525282352e-06,4.850324806133658566e-03
3.842816001693806164e-06,4.906420359426958561e-03
3.900089464418288632e-06,4.963164754988388591e-03
3.958113391251608844e-06,5.020565388077439378e-03
4.016804268576609255e-06,5.078629736736796872e-03
4.076351156542178068e-06,5.137365857792973445e-03
4.136798811069938624e-06,5.196781631953131461e-03
4.198141876688435722e-06,5.256884734947210591e-03
4.260391847456282751e-06,5.317683094806583723e-03
4.323567388211741571e-06,5.379184652600688295e-03
4.387700520296424813e-06,5.441397434467478214e-03
4.452677087847592995e-06,5.504330101914043163e-03
4.518426812393348626e-06,5.567991153233976288e-03
4.585241273186611372e-06,5.632388619788718069e-03
4.653252976025137056e-06,5.697530884111158545e-03
4.722175485190750321e-06,5.763426852307220773e-03
4.791895630171044167e-06,5.830085398389805128e-03
4.862742071676547960e-06,5.897514760429577348e-03
4.934859843680745224e-06,5.965723535436694147e-03
5.007945624527177486e-06,6.034721660048082865e-03
5.081874745921403893e-06,6.104518649885525353e-03
5.156995356764146132e-06,6.175122871310850629e-03
5.233466050313430396e-06,6.246543358383458561e-03
5.310970203785556214e-06,6.318790002680047500e-03
5.389398730887676834e-06,6.391872387382136617e-03
5.468962646216376142e-06,6.465800521834498202e-03
5.549722557815185327e-06,6.540584440126386186e-03
5.631673187448123677e-06,6.616233319891882091e-03
5.714829585402743803e-06,6.692756810022703652e-03
5.799212373779503443e-06,6.770165843063991745e-03
5.884837610469601656e-06,6.848471052241484648e-03
5.971725840446125970e-06,6.927681868906201967e-03
6.059899836214542468e-06,7.007808281648103196e-03
6.149346279640946859e-06,7.088862036693675470e-03
6.240070943889572561e-06,7.170854419485049938e-03
6.332084489790798289e-06,7.253795088559220235e-03
6.425384710423530179e-06,7.337694461830684446e-03
6.520048630287401510e-06,7.422564674545321060e-03
6.616095811690360872e-06,7.508417410544687524e-03
6.713628144343348195e-06,7.595263181908948509e-03
6.812719194536962953e-06,7.683113072014696385e-03
6.913292056682921512e-06,7.771979459835916780e-03
7.015371930966759597e-06,7.861874409969995051e-03
7.118806562533488680e-06,7.952809387544713254e-03
7.223500633246832631e-06,8.044796257561779088e-03
7.329660334862678278e-06,8.137847424431484886e-03
7.437343614736373974e-06,8.231975314336698046e-03
7.546627056473542856e-06,8.327192107640008639e-03
7.657531212562747609e-06,8.423510229130719978e-03
