Pressure [MeV/fm^3],Energy Density [MeV/fm^3]
2.164842180434415585e-08,9.510252320295934920e-05
2.197615501733983727e-08,9.616855888215391265e-05
2.230843690152160762e-08,9.724654781034494839e-05
2.264704731936314448e-08,9.833667258856940857e-05
2.299107776730752149e-08,9.943903303140406308e-05
2.333901247541985868e-08,1.005536946525936232e-04
2.369168958744948798e-08,1.016808310296440546e-04
2.405090746807358127e-08,1.028206633581285406e-04
2.441611681452666061e-08,1.039733010376404015e-04
2.478569671895630155e-08,1.051387864382107593e-04
2.516003581599321269e-08,1.063172867374194582e-04
2.554003812942492168e-08,1.075090280527363798e-04
2.592574771037891704e-08,1.087141532986516214e-04
2.631824649932579682e-08,1.099328408401450057e-04
2.671760027120696261e-08,1.111652429784876147e-04
2.712191892295906483e-08,1.124113978270921833e-04
2.753110037834543965e-08,1.136714499079184866e-04
2.794735572455309089e-08,1.149456761842027514e-04
2.837116555669538391e-08,1.162342573447866604e-04
2.880054138318080790e-08,1.175372381100351439e-04
2.923502651386121466e-08,1.188547487606554041e-04
2.967610319137171243e-08,1.201870427308701997e-04
3.012423468083857220e-08,1.215343109652633919e-04
3.057894559087118306e-08,1.228966870615378140e-04
3.103991096743006126e-08,1.242743265038119798e-04
3.150838263805216719e-08,1.256674293740955384e-04
3.198550099695017426e-08,1.270761988691142925e-04
3.246952098830361494e-08,1.285007472487593495e-04
3.295914483790402032e-08,1.299411979301494380e-04
3.345566168668779029e-08,1.313977835534107152e-04
3.395981415804167175e-08,1.328707194930915365e-04
3.447159727133556953e-08,1.343601794479909255e-04
3.499139509193956566e-08,1.358663566690774410e-04
3.551902164374106815e-08,1.373894278872706410e-04
3.605393522643583770e-08,1.389295702968169704e-04
3.659694111896108349e-08,1.404869715973675796e-04
3.714985237806446492e-08,1.420617981683042035e-04
3.771173389023467628e-08,1.436542677254697272e-04
3.828040340160399143e-08,1.452646394263543508e-04
3.885643026603465099e-08,1.468930935256940976e-04
3.943981207323231869e-08,1.485397908163910727e-04
4.003109006970728958e-08,1.502049395961377114e-04
4.063430698281220631e-08,1.518887265941465912e-04
4.124892840642234739e-08,1.535913646410166954e-04
4.186959936090093771e-08,1.553131040225328244e-04
4.249664031300552531e-08,1.570541573078450043e-04
4.313590148954326243e-08,1.588147483578904553e-04
4.378785156647674586e-08,1.605950979249866719e-04
4.444818485261101767e-08,1.623954122081441571e-04
4.511660297765638468e-08,1.642159175636072603e-04
4.579382768897744708e-08,1.660568021728000383e-04
4.647940094297778262e-08,1.679182779231998355e-04
4.717736355711927762e-08,1.698006443165139411e-04
4.788991573088437167e-08,1.717041635125815481e-04
4.861149890036689054e-08,1.736290032431148025e-04
4.933937815831058756e-08,1.755753663787626678e-04
5.007849131443047641e-08,1.775435636900075172e-04
5.083136594155405618e-08,1.795338784374475420e-04
5.159579312619321620e-08,1.815465143949603153e-04
5.237112091515267834e-08,1.835817022149006104e-04
5.315721649496889759e-08,1.856396992388935688e-04
5.395258107040556607e-08,1.877207484058247518e-04
5.476038113274826182e-08,1.898251349080270708e-04
5.558544427626658560e-08,1.919531630051513386e-04
5.642360343006195254e-08,1.941050571054225220e-04
5.726919174740308523e-08,1.962810318755798123e-04
5.812518989500870484e-08,1.984813803075588816e-04
5.899426268839162001e-08,2.007063880142823651e-04
5.987673857073687793e-08,2.029563411205640463e-04
6.077605468324105970e-08,2.052315732954791238e-04
6.169078991122129778e-08,2.075323399325913710e-04
6.261629688562976181e-08,2.098588366159460580e-04
6.355362613390147739e-08,2.122113761401880254e-04
6.450410296152406720e-08,2.145903331622698977e-04
6.546797563772732375e-08,2.169959933357386609e-04
6.644884603690719637e-08,2.194286222574190134e-04
6.744671426060156109e-08,2.218885242295906188e-04
6.845685647963193910e-08,2.243760063841317837e-04
6.947918201957857904e-08,2.268913779359742710e-04
7.051851821899642078e-08,2.294349521730777014e-04
7.157555015245090955e-08,2.320070470943227481e-04
7.264889759531714992e-08,2.346079589295524208e-04
7.373898206560316197e-08,2.372379993288779008e-04
7.484339950783315939e-08,2.398975505172397426e-04
7.596114332998590806e-08,2.425869651060387445e-04
7.709513945656767718e-08,2.453065254843384826e-04
7.824636620135286276e-08,2.480565525162321187e-04
7.941466326067799786e-08,2.508374007371719726e-04
8.059967868789394927e-08,2.536494103414033770e-04
8.180382154455684156e-08,2.564929562786582391e-04
8.302999451990356986e-08,2.593684194619203854e-04
8.427410063922074203e-08,2.622761194795322054e-04
8.553244363248627148e-08,2.652163774670990575e-04
8.680817755529412634e-08,2.681896058164178137e-04
8.810293687963561362e-08,2.711962359643632528e-04
8.941785120893227271e-08,2.742365799559247233e-04
9.075709408500733341e-08,2.773109205109857540e-04
9.211676212025827080e-08,2.804197102199434705e-04
9.348864627337772368e-08,2.835634567793502065e-04
9.487734182948438600e-08,2.867424871922206347e-04
9.629089583135510994e-08,2.899570775056406068e-04
9.772745327961316049e-08,2.932076657949635136e-04
9.918480852833517570e-08,2.964947223031833131e-04
1.006636509263501529e-07,2.998186475702603626e-04
1.021640965897573883e-07,3.031798751243244524e-04
1.036867521696883282e-07,3.065788164194797145e-04
1.052363113215436925e-07,3.100158296720624085e-04
1.068126844923515691e-07,3.134913460760325207e-04
1.084055013787805885e-07,3.170058503716250363e-04
1.100145126534154954e-07,3.205597806698877211e-04
1.116504036160254532e-07,3.241535416088087845e-04
1.133143941673674813e-07,3.277875748433388479e-04
1.150032359966215661e-07,3.314623626124660197e-04
1.167172502226823206e-07,3.351783664877852642e-04
1.184539517080755684e-07,3.389360412344183545e-04
1.202111114388820178e-07,3.427358568583166584e-04
1.219992189745367137e-07,3.465782655097466767e-04
1.238242703055885606e-07,3.504637269677123956e-04
1.256753023979962203e-07,3.543927748665781055e-04
1.275478906785778369e-07,3.583659415047646423e-04
1.294450959775180081e-07,3.623836317129081963e-04
1.313660083708345340e-07,3.664462689571298232e-04
1.333157823337088830e-07,3.705544586838771656e-04
1.353004801179184689e-07,3.747087948807514618e-04
1.373146619451914366e-07,3.789097246622329714e-04
1.393522149470753715e-07,3.831577126712836043e-04
1.414194858261230288e-07,3.874533237496195119e-04
1.435243795001218756e-07,3.917971241799065273e-04
1.456630654279629959e-07,3.961896394103955866e-04
1.478317593923665417e-07,4.006314057766562878e-04
1.500310765936592799e-07,4.051229747213611889e-04
1.522577031968921937e-07,4.096648923908351777e-04
1.545145984248775779e-07,4.142577294392283814e-04
1.568111329382159806e-07,4.189020736742480938e-04
1.591450061478127635e-07,4.235984984303021506e-04
1.615078880593527468e-07,4.283475796721128654e-04
1.639015121168273211e-07,4.331499083956977703e-04
1.663309098637318541e-07,4.380060808475193875e-04
1.687962606409853156e-07,4.429167002905834557e-04
1.712998997469352088e-07,4.478823697925908955e-04
1.738422794003425079e-07,4.529037054626809449e-04
1.764282645486399967e-07,4.579813626269039193e-04
1.790598954715842496e-07,4.631159767317079377e-04
1.817231075168493232e-07,4.683081601563707664e-04
1.844151324976908077e-07,4.735585577433183355e-04
1.871464528870603351e-07,4.788678006250751424e-04
1.899192758496370572e-07,4.842365281768811142e-04
1.927330229136888119e-07,4.896654943426134157e-04
1.955881826924283538e-07,4.951554211153616014e-04
1.984855057664081682e-07,5.007068917670759413e-04
2.014255815810946536e-07,5.063205436816118742e-04
2.044090399003522651e-07,5.119971453116775508e-04
2.074364363972488425e-07,5.177374427121034066e-04
2.105084859137558837e-07,5.235421097839462528e-04
2.136258400346892668e-07,5.294118538481036888e-04
2.167891608958765939e-07,5.353473913630150570e-04
2.199991170612745332e-07,5.413494165055598561e-04
2.232563903405063541e-07,5.474187363896532849e-04
2.265617412656241333e-07,5.535561930386059034e-04
2.299158017672142516e-07,5.597625020494536576e-04
2.333193128238804331e-07,5.660383874802382611e-04
2.367729465577026271e-07,5.723846424401346196e-04
2.402775705277770225e-07,5.788020598318147471e-04
2.438338162721854671e-07,5.852914313726785079e-04
2.474434129441410791e-07,5.918535358740858142e-04
2.511057216896836261e-07,5.984892031991941334e-04
2.548126219215400515e-07,6.051993260118319548e-04
2.585679474444503463e-07,6.119847237550261670e-04
2.623974317121510688e-07,6.188461612236336633e-04
2.662995047601386394e-07,6.257844985960025900e-04
2.702497159118439377e-07,6.328006727221469627e-04
2.742490142858775181e-07,6.398955560974773369e-04
2.782902095976045641e-07,6.470699882142516481e-04
2.823697891672834307e-07,6.543248592828746369e-04
2.865340107345378662e-07,6.616610681612638710e-04
2.907950509619529516e-07,6.690795197280124127e-04
2.951060820452088767e-07,6.765811864067729307e-04
2.994561003970946543e-07,6.841670238912025579e-04
3.038661130489075920e-07,6.918378962851441357e-04
3.083375867431234964e-07,6.995947183200183729e-04
3.128858135475318347e-07,7.074385389133794290e-04
3.175271408851615663e-07,7.153703744595938697e-04
3.222286122803979108e-07,7.233911604390927700e-04
3.269648395790856035e-07,7.315018760296473303e-04
3.317711128864154490e-07,7.397035283592171386e-04
3.366746648074230803e-07,7.479971190690708205e-04
3.416530586311016115e-07,7.563837103990661906e-04
3.466892774907795327e-07,7.648643764339250204e-04
3.517948139258104966e-07,7.734401562336076699e-04
3.569757204981868185e-07,7.821121184654512707e-04
3.622353105081905725e-07,7.908813199688364800e-04
3.675861535053494311e-07,7.997487892038832079e-04
3.730201915727781239e-07,8.087156787817413161e-04
3.785197140296814627e-07,8.177832155553304075e-04
3.840922538116308483e-07,8.269524778255270226e-04
3.897488472421031978e-07,8.362245028904097570e-04
3.954886797278149415e-07,8.456004680990942711e-04
4.013128432877320906e-07,8.550815826865309100e-04
4.072223640024609107e-07,8.646690178775350488e-04
4.132181508401318021e-07,8.743639469935556930e-04
4.193015770746514545e-07,8.841675783060554345e-04
4.254803061634681677e-07,8.940811814343957399e-04
4.317555651403255681e-07,9.041059890316951834e-04
4.381231612835364309e-07,9.142432167128834459e-04
4.445844035361480446e-07,9.244941254781589932e-04
4.511360526045548642e-07,9.348599710929499920e-04
4.577793495812460071e-07,9.453420450802620632e-04
4.645064767751546280e-07,9.559415800598098376e-04
4.713113071650605489e-07,9.666598185168228177e-04
4.782262533760191820e-07,9.774984740015442170e-04
4.852646700145378303e-07,9.884591083023804275e-04
4.924093694031036553e-07,9.995425612724562116e-04
4.996587148305061789e-07,1.010749946534112180e-03
5.070062222297499497e-07,1.022083023808941383e-03
5.144408975749760405e-07,1.033543426661097343e-03
5.219870855585912211e-07,1.045132274086671810e-03
5.296644900213690809e-07,1.056850773651358925e-03
5.374602473314488023e-07,1.068700597763709310e-03
5.453711255553458993e-07,1.080683257740074977e-03
5.533914466374699669e-07,1.092800485321785905e-03
5.615049792943335740e-07,1.105054431537964062e-03
5.697273688045438572e-07,1.117445884915724795e-03
5.780760854938961087e-07,1.129975015179117805e-03
5.865525683099584914e-07,1.142644269499377193e-03
5.951721914819718671e-07,1.155456852934087309e-03
6.039298158720716641e-07,1.168413655936164633e-03
6.128144931041805385e-07,1.181514950506450286e-03
6.218273415038083079e-07,1.194762701202876400e-03
6.309538279573493346e-07,1.208159073630149819e-03
6.401987242483349778e-07,1.221705695358632233e-03
6.495761530978033923e-07,1.235404558203684723e-03
6.590868685664308125e-07,1.249257333441049873e-03
6.687408001653950762e-07,1.263265474752241820e-03
6.785395131733571711e-07,1.277430736548060145e-03
6.885000198243179791e-07,1.291754667478524484e-03
6.986273219877174694e-07,1.306239017541198366e-03
7.088870201904422622e-07,1.320885883400266074e-03
7.192770867861675256e-07,1.335697111391328509e-03
7.297963580013850120e-07,1.350674576175030922e-03
7.404342608782472908e-07,1.365820224563988076e-03
7.512600133553866617e-07,1.381135487858568562e-03
7.623071768886454273e-07,1.396622072180877085e-03
7.735098554192749025e-07,1.412282272895689717e-03
7.848478210377355564e-07,1.428118092152058909e-03
7.963301298887622661e-07,1.444131692125726930e-03
8.079438853287550645e-07,1.460325304000211670e-03
8.197328368853708889e-07,1.476700551366107996e-03
8.317346002678958295e-07,1.493259154058700511e-03
8.439226365276100819e-07,1.510003495820801296e-03
8.562835624612391314e-07,1.526935978034636449e-03
8.688228896552627472e-07,1.544058367111862456e-03
8.815392616321912562e-07,1.561372385539688389e-03
8.944360968590572487e-07,1.578880466760973792e-03
9.075147443533585427e-07,1.596585118446529686e-03
9.207800123193926797e-07,1.614488393384767330e-03
9.342435331973581848e-07,1.632592346397982981e-03
9.479004260245524357e-07,1.650899307448924118e-03
9.617285051496328168e-07,1.669411717772943931e-03
9.757447853451536118e-07,1.688131813729024100e-03
9.900078404569419905e-07,1.707061721598759430e-03
1.004508909698403334e-06,1.726203842550975759e-03
1.019219651877270272e-06,1.745560745711231430e-03
1.034143575657536820e-06,1.765134811952580058e-03
1.049245676207079161e-06,1.784928283102207771e-03
1.064529067144719623e-06,1.804943627205552728e-03
1.080078920671473107e-06,1.825183804323525071e-03
1.095905739706828586e-06,1.845651384387351178e-03
1.111896438274729095e-06,1.866348229127684152e-03
1.128027931714498373e-06,1.887276800893382010e-03
1.144452466394343341e-06,1.908440201990560308e-03
1.161213730915674629e-06,1.929841187141954559e-03
1.178195100772549967e-06,1.951482025288074195e-03
1.195363040853332749e-06,1.973365227571347545e-03
1.212780379244362159e-06,1.995493993091297224e-03
1.230469506842513855e-06,2.017871262777915821e-03
1.248412863726050334e-06,2.040499656172106973e-03
1.266603191338917477e-06,2.063382069086447390e-03
1.285060037507093184e-06,2.086520939236477783e-03
1.303803223512006277e-06,2.109918673262781152e-03
1.322810122870437040e-06,2.133578805690436366e-03
1.342047611216703473e-06,2.157504815442356626e-03
1.361569338741118005e-06,2.181699334454544840e-03
1.381453382979446549e-06,2.206165158924131616e-03
1.401632288225572364e-06,2.230905394090838996e-03
1.422000070726381935e-06,2.255923104355756631e-03
1.442631178600141246e-06,2.281221396916339149e-03
1.463643504768422679e-06,2.306803395514917757e-03
1.484992476128805753e-06,2.332672295074215106e-03
1.506603445149305870e-06,2.358831349390323566e-03
1.528503474553537683e-06,2.385283798755122135e-03
1.550737419835386809e-06,2.412032906203650465e-03
1.573303664764085541e-06,2.439082007480822788e-03
1.596208280915065818e-06,2.466434516855315479e-03
1.619455515042893544e-06,2.494093832703785877e-03
1.643055507261267158e-06,2.522063419660595940e-03
1.667011654219865415e-06,2.550346756842592714e-03
1.691259055346227290e-06,2.578947420888122802e-03
1.715796074978649900e-06,2.607868980510347559e-03
1.740690057613273188e-06,2.637114824680988727e-03
1.765948093091512353e-06,2.666688540215348107e-03
1.791583017537107025e-06,2.696594157589522669e-03
1.817605051816921113e-06,2.726835510648490443e-03
1.843993521836827839e-06,2.757415924865715736e-03
1.870733400884827314e-06,2.788339038250711981e-03
1.897906285089341121e-06,2.819609074241103547e-03
1.925570658877171129e-06,2.851230110418709069e-03
1.953610355861744003e-06,2.883205708937620643e-03
1.981972001772893224e-06,2.915539602771555737e-03
2.010693930991386290e-06,2.948236176047849821e-03
2.039745518455187755e-06,2.981299660341754122e-03
2.069255625125596881e-06,3.014734192813845436e-03
2.099397738034606185e-06,3.048544157868405668e-03
2.129985069571000034e-06,3.082733365246591046e-03
2.160804306365810106e-06,3.117305546820773460e-03
2.192015455650499480e-06,3.152265360595394705e-03
2.223786652000161851e-06,3.187617513671734282e-03
2.256055967729493495e-06,3.223366274119963786e-03
2.288775944034757562e-06,3.259516034113969091e-03
2.321970816098308736e-06,3.296071296106937824e-03
2.355676214083078751e-06,3.333036514605185446e-03
2.389872336303620444e-06,3.370416408191039773e-03
2.424465567499611336e-06,3.408216216135416792e-03
2.459486773597887632e-06,3.446440405062916636e-03
2.495019814306853273e-06,3.485092540514762253e-03
2.531067589308448167e-06,3.524177625549358272e-03
2.567710289404753368e-06,3.563701731770308693e-03
2.604951895583774401e-06,3.603669705157999149e-03
2.642749408790459399e-06,3.644085648317611434e-03
2.681114007228137877e-06,3.684954562803263896e-03
2.719947516148528911e-06,3.726281875930449825e-03
2.759236585943621626e-06,3.768072712465043474e-03
2.799091931971110644e-06,3.810332588968667281e-03
2.839532907317708215e-06,3.853066852410934415e-03
2.880557595127670753e-06,3.896280582499627321e-03
2.922173095661839435e-06,3.939979138543482813e-03
2.964389189886560170e-06,3.984167845900531309e-03
3.007213493126847748e-06,4.028852172371885296e-03
3.050655177855209994e-06,4.074037587039178523e-03
3.094717699521786409e-06,4.119729559543959703e-03
3.139426942575388706e-06,4.165934117247895897e-03
3.184810919766389369e-06,4.212657238835053157e-03
3.230847311702253671e-06,4.259904575404200103e-03
3.277516882041008255e-06,4.307681949555689990e-03
3.324849877881684113e-06,4.355995297560532296e-03
3.372869677243838279e-06,4.404850609129615756e-03
3.421581207089853362e-06,4.454253927883196525e-03
3.471013806572775742e-06,4.504211234323687342e-03
3.521133427007261477e-06,4.554728984133022546e-03
3.571831866007154909e-06,4.605814046683313207e-03
3.623206052970509415e-06,4.657472391837427263e-03
3.675484212392224231e-06,4.709709607628863315e-03
3.728585641375626159e-06,4.762532481674536071e-03
3.782293429798818952e-06,4.815948134118680155e-03
3.836684364005578211e-06,4.869963122738261117e-03
3.892011071028275861e-06,4.924584195667941998e-03
3.948239084818191960e-06,4.979818129587962328e-03
4.005142312942007527e-06,5.035671574757245514e-03
4.062744233879612294e-06,5.092151499234798089e-03
4.121185670378809581e-06,5.149265316134180558e-03
4.180474555655099686e-06,5.207020148180760769e-03
4.240608415397450974e-06,5.265422729875540719e-03
4.301587621357554967e-06,5.324480279108961996e-03
4.363556398134536409e-06,5.384200344069876333e-03
4.426578417458252505e-06,5.444590354124839715e-03
4.490415408852709143e-06,5.505657934986305999e-03
4.554999944977838783e-06,5.567410723419679262e-03
4.620496036077387976e-06,5.629856338824085031e-03
4.686951765885296411e-06,5.693002543585652143e-03
4.754364025925459735e-06,5.756857162818454672e-03
4.822780574516243561e-06,5.821428117475711470e-03
4.892082239164060731e-06,5.886723455406083459e-03
4.962120887319886606e-06,5.952751240570948628e-03
5.033186357265542182e-06,6.019519883079364926e-03
5.105562330174603369e-06,6.087037955939752706e-03
5.178992111390293046e-06,6.155313506100889426e-03
5.253212685356421419e-06,6.224354634269084821e-03
5.328467800619565612e-06,6.294170213721356558e-03
5.405029973566313643e-06,6.364769166873342557e-03
5.482781997685630888e-06,6.436160251588965604e-03
5.561640904978471683e-06,6.508352517831995400e-03
5.641598741529450542e-06,6.581354788829162777e-03
5.722512966207642160e-06,6.655175694134179976e-03
5.804455373398913424e-06,6.729824674030342527e-03
5.887552761390407887e-06,6.805311840258248049e-03
5.971810467422000394e-06,6.881646273890628003e-03
6.057305504339847477e-06,6.958836223211874693e-03
6.144059287696861187e-06,7.036891548581396434e-03
6.232257676082143373e-06,7.115823411199159211e-03
6.321898210566555406e-06,7.195641519751204765e-03
6.412638387607181843e-06,7.276354914983497457e-03
6.504491517163765115e-06,7.357973642325947063e-03
