Pressure [MeV/fm^3],Energy Density [MeV/fm^3]
9.322124661968159365e-10,9.545478440410656032e-06
9.491580124580934226e-10,9.663515396166631120e-06
9.663819187431654389e-10,9.783011995142341103e-06
9.838879897515984286e-10,9.903986286891626665e-06
1.001680092435287745e-09,1.002645654419342291e-05
1.019762160244015704e-09,1.015044126581858907e-05
1.038138197770676429e-09,1.027595917933162589e-05
1.056812285826803561e-09,1.040302924392767351e-05
1.075788586981078612e-09,1.053167065330536941e-05
1.095071351595627514e-09,1.066190283857598649e-05
1.114664924397205026e-09,1.079374547120941363e-05
1.134573751622773780e-09,1.092721846601744806e-05
1.154802388781542568e-09,1.106234198417495697e-05
1.175355509078239368e-09,1.119913643627941975e-05
1.196237912545274855e-09,1.133762248544944396e-05
1.217454535934479180e-09,1.147782105046273955e-05
1.239010463422332013e-09,1.161975330893418643e-05
1.260910938186008211e-09,1.176344070053454612e-05
1.283161374911184135e-09,1.190890493025041885e-05
1.305767373296362096e-09,1.205616797168605247e-05
1.328734732622536634e-09,1.220525207040763698e-05
1.352069467461288796e-09,1.235617974733066713e-05
1.375777824598963306e-09,1.250897380215113572e-05
1.399866301259339578e-09,1.266365731682105206e-05
1.424341664712328026e-09,1.282025365906914968e-05
1.449210973361560248e-09,1.297878648596734396e-05
1.474481599409442418e-09,1.313927974754371049e-05
1.500161253204237031e-09,1.330175769044269235e-05
1.526258009380106183e-09,1.346624486163334255e-05
1.552780334907742511e-09,1.363276611216625059e-05
1.579737119180350824e-09,1.380134660098009670e-05
1.607137706267209583e-09,1.397201179875849094e-05
1.634991929475017077e-09,1.414478749183803928e-05
1.663310148365586612e-09,1.431969978616842589e-05
1.692103288387329043e-09,1.449677511132543163e-05
1.721382883287325886e-09,1.467604022457771202e-05
1.751161120480695338e-09,1.485752221500838675e-05
1.781450889564397921e-09,1.504124850769226390e-05
1.812265834173685802e-09,1.522724686792976811e-05
1.843620407391047590e-09,1.541554540553849898e-05
1.875529930929852683e-09,1.560617257920359234e-05
1.908010658327867993e-09,1.579915720088777696e-05
1.941079842399598216e-09,1.599452844030239390e-05
1.974755807210895516e-09,1.619231582944041022e-05
2.009058024854600549e-09,1.639254926717268065e-05
2.044007197322144828e-09,1.659525902390854646e-05
2.079625343783152415e-09,1.680047574632222173e-05
2.115935893603043371e-09,1.700823046214603761e-05
2.152963785447713352e-09,1.721855458503205225e-05
2.190735572844419086e-09,1.743147991948333097e-05
2.229279536589186915e-09,1.764703866585631955e-05
2.268625804413414049e-09,1.786526342543583198e-05
2.308806478345952325e-09,1.808618720558417725e-05
2.349855770231798720e-09,1.830984342496593307e-05
2.391810145894862556e-09,1.853626591885017556e-05
2.434577998170291650e-09,1.876548869861822185e-05
2.478041626571203059e-09,1.899754614980913523e-05
2.522210312303947871e-09,1.923247332554337650e-05
2.567093493161963766e-09,1.947030571248751927e-05
2.612700749865749120e-09,1.971107923618737269e-05
2.659041815744274234e-09,1.995483026651137098e-05
2.706126587355838538e-09,2.020159562316299937e-05
2.753965136121421261e-09,2.045141258126318857e-05
2.802567721048398433e-09,2.070431887700363620e-05
2.851944802627706986e-09,2.096035271337206513e-05
2.902107057992983302e-09,2.121955276595057061e-05
2.953065397435976055e-09,2.148195818878798104e-05
3.004830982378721298e-09,2.174760862034736428e-05
3.057415244909445839e-09,2.201654418952985482e-05
3.110829908996077269e-09,2.228880552177583895e-05
3.165087013498554605e-09,2.256443374524471059e-05
3.220198937108869692e-09,2.284347049707438043e-05
3.276178425355973523e-09,2.312595792972174441e-05
3.333038619821388085e-09,2.341193871738536187e-05
3.390793089720521671e-09,2.370145606251163083e-05
3.449455866014472794e-09,2.399455370238572755e-05
3.509041478227379336e-09,2.429127591580869266e-05
3.569564994155294167e-09,2.459166752986201930e-05
3.631042062664127048e-09,2.489577392676114911e-05
3.693488959786390689e-09,2.520364105079937381e-05
3.756922638339408102e-09,2.551531541538348062e-05
3.821360781301353923e-09,2.583084411016287280e-05
3.886821859195932094e-09,2.615027480825358498e-05
3.953325191751776128e-09,2.647365577355884341e-05
4.020891014118885383e-09,2.680103586818790898e-05
4.089540547941455677e-09,2.713246455997469407e-05
4.159296077604607173e-09,2.746799193009823677e-05
4.230181031991555409e-09,2.780766868080648935e-05
4.302220072108068715e-09,2.815154614324560985e-05
4.375439184952303864e-09,2.849967628539640667e-05
4.449865784030797233e-09,2.885211172012009447e-05
4.525528816945129665e-09,2.920890571331532989e-05
4.602458880499073448e-09,2.957011219218870219e-05
4.680688343802559970e-09,2.993578575364068815e-05
4.760251479877046585e-09,3.030598167276965272e-05
4.841184606296420493e-09,3.068075591149578286e-05
4.923526235429105459e-09,3.106016512730778696e-05
5.007317234880036705e-09,3.144426668213448411e-05
5.092600998766294734e-09,3.183311865134423439e-05
5.179423630496977688e-09,3.222677983287444296e-05
5.267834137767082011e-09,3.262530975649428547e-05
5.357884640516202579e-09,3.302876869320333140e-05
5.449630592646402936e-09,3.343721766476901309e-05
5.543131018339528868e-09,3.385071845340605073e-05
5.638448763862610407e-09,3.426933361160112648e-05
5.735650765801194873e-09,3.469312647208593850e-05
5.834808336714352667e-09,3.512216115796217881e-05
5.935997469262084454e-09,3.555650259298199925e-05
6.039299159915928259e-09,3.599621651198776033e-05
6.144799753426880693e-09,3.644136947151458658e-05
6.252591309291819305e-09,3.689202886056027527e-05
6.362576286515555003e-09,3.734826250408228911e-05
6.474351610197772286e-09,3.781013843332988193e-05
6.587921763188325192e-09,3.827772638093786777e-05
6.703310581335712005e-09,3.875109698206251287e-05
6.820542254983232964e-09,3.923032174546742907e-05
6.939641352822745001e-09,3.971547306437050832e-05
7.060632848073402806e-09,4.020662422742929626e-05
7.183542147166724064e-09,4.070384942986737982e-05
7.308395121131000626e-09,4.120722378474327971e-05
7.435218139881263476e-09,4.171682333436457850e-05
7.564038109634261603e-09,4.223272506184892424e-05
7.694882513682516289e-09,4.275500690283468789e-05
7.827779456776697705e-09,4.328374775734325990e-05
7.962757713381683346e-09,4.381902750179542556e-05
8.099846780088871490e-09,4.436092700118421096e-05
8.239076932485498471e-09,4.490952812140690351e-05
8.380479286800788339e-09,4.546491374175847612e-05
8.524085866669321369e-09,4.602716776758924104e-05
8.669929675373479867e-09,4.659637514312947755e-05
8.818044773949631742e-09,4.717262186448356788e-05
8.968466365567003346e-09,4.775599499279672457e-05
9.121230886613772774e-09,4.834658266759722986e-05
9.276376104951842881e-09,4.894447412031685014e-05
9.433941225830732704e-09,4.954975968799308462e-05
9.593967005981074160e-09,5.016253082715598589e-05
9.756495876440485710e-09,5.078288012790298120e-05
9.921572074698487636e-09,5.141090132816527214e-05
1.008924178678305128e-08,5.204668932816893683e-05
1.025955329994938690e-08,5.269034020509469172e-05
1.043255716667170792e-08,5.334195122793986395e-05
1.060830638068125287e-08,5.400162087258637562e-05
1.078685656583872435e-08,5.466944883707894136e-05
1.096826617867677257e-08,5.534553605711724672e-05
1.115259672549835142e-08,5.602998472176663394e-05
1.133991299496988130e-08,5.672289828939159131e-05
1.153028330720409859e-08,5.742438150381654549e-05
1.172377978038679883e-08,5.813454041071864595e-05
1.192047861606427984e-08,5.885348237425774587e-05
1.212046040427427866e-08,5.958131609394776694e-05
1.232381044977335252e-08,6.031815162177605515e-05
1.253061912068701538e-08,6.106410037957464424e-05
1.274098222098735457e-08,6.181927517665023678e-05
1.295500138828478788e-08,6.258379022767816824e-05
1.317278451850772849e-08,6.335776117086649995e-05
1.339444621913571239e-08,6.414130508639673278e-05
1.362010829274840070e-08,6.493454051514751786e-05
1.384990025275516366e-08,6.573758747770821521e-05
1.408395987327811663e-08,6.655056749368955086e-05
1.432243377527526554e-08,6.737360360133846048e-05
1.456547805111100224e-08,6.820682037746512896e-05
1.481325892990801025e-08,6.905034395768992392e-05
1.506595348614888458e-08,6.990430205701886953e-05
1.532375039413696891e-08,7.076882399075598194e-05
1.558685073107552416e-08,7.164404069576185826e-05
1.585546883168148655e-08,7.253008475206772123e-05
1.612983319741651571e-08,7.342709040485497548e-05
1.640999215205348515e-08,7.433519302251791715e-05
1.669519197923610889e-08,7.525452735892366866e-05
1.698539137185069824e-08,7.618523197081576899e-05
1.728066554819537922e-08,7.712744747100078635e-05
1.758109003212285695e-08,7.808131621104123809e-05
1.788674060104343539e-08,7.904698230281879978e-05
1.819769323017139965e-08,8.002459164037138380e-05
1.851402403281550287e-08,8.101429192200931871e-05
1.883580919650397684e-08,8.201623267271355663e-05
1.916312491472503190e-08,8.303056526682090963e-05
1.949604731405279097e-08,8.405744295100034023e-05
1.983465237641765345e-08,8.509702086752465628e-05
2.017901585626850785e-08,8.614945607784216394e-05
2.052921319236210194e-08,8.721490758645319833e-05
2.088531941390185279e-08,8.829353636509561112e-05
2.124740904073567687e-08,8.938550537724497492e-05
2.161555597730770995e-08,9.049097960293351597e-05
2.198983340004494258e-08,9.161012606389373834e-05
2.237031363784397146e-08,9.274311384903171328e-05
2.275706804530737717e-08,9.389011414023499408e-05
2.315016686836239374e-08,9.505130023852149891e-05
2.354967910187711871e-08,9.622684759053468789e-05
2.395567233887091701e-08,9.741693381539049594e-05
2.436821261089696488e-08,9.862173873188301461e-05
2.478736421915421660e-08,9.984144438605439809e-05
2.521318955586543074e-08,1.010762350791355663e-04
2.564574891543581675e-08,1.023262973958645358e-04
2.608510029488371472e-08,1.035918202331891270e-04
2.653129918301062729e-08,1.048729948293607709e-04
2.698439833775280592e-08,1.061700147934272745e-04
2.744444755113001838e-08,1.074830761351314710e-04
2.791149340117940673e-08,1.088123772952239137e-04
2.838557899023366546e-08,1.101581191761972291e-04
2.886674366887216689e-08,1.115205051734509119e-04
2.935502274484200970e-08,1.128997412068945987e-04
2.985044717621288249e-08,1.142960357529992666e-04
3.035304324799467458e-08,1.157095998773047984e-04
3.086283223141046249e-08,1.171406472673942439e-04
3.137983002497946400e-08,1.185893942663439506e-04
3.190404677652448918e-08,1.200560599066602841e-04
3.243548648517688719e-08,1.215408659447131710e-04
3.297414658240805055e-08,1.230440368956777256e-04
3.352001749107100451e-08,1.245658000689951967e-04
3.407308216138759266e-08,1.261063856043654024e-04
3.463331558276655007e-08,1.276660265082822437e-04
3.520068427028564974e-08,1.292449586911265233e-04
3.577514572461537585e-08,1.308434210048274972e-04
3.635664786410524294e-08,1.324616552811088116e-04
3.694512842769229185e-08,1.340999063703320776e-04
3.754051434722943960e-08,1.357584221809536725e-04
3.814272108776463713e-08,1.374374537196103232e-04
3.875165195423276847e-08,1.391372551318492473e-04
3.936719736295042597e-08,1.408580837435210954e-04
3.998923407622713207e-08,1.426002001028519282e-04
4.061762439832788370e-08,1.443638680232135014e-04
4.125221533093889935e-08,1.461493546266118889e-04
4.189249134986689586e-08,1.479569298432894739e-04
4.253429121970738197e-08,1.497868608589078999e-04
4.317671666258986754e-08,1.516394224795099700e-04
4.382018094955822790e-08,1.535148948107148306e-04
4.446518386797475515e-08,1.554135614605559696e-04
4.511231997663358036e-08,1.573357095862200068e-04
4.576228746053404872e-08,1.592816299416051947e-04
4.641589762338171979e-08,1.612516169257246492e-04
4.707408505812094493e-08,1.632459686319804649e-04
4.773791853816548733e-08,1.652649868983372577e-04
4.840861267448806993e-08,1.673089773584230798e-04
4.908754038636283072e-08,1.693782494935887697e-04
4.977624623633570593e-08,1.714731166859574489e-04
5.047646068293209530e-08,1.735938962724976149e-04
5.119011530770980223e-08,1.757409096001540897e-04
5.191935907653533800e-08,1.779144820820751510e-04
5.266657569841234572e-08,1.801149432549729260e-04
5.343440214883384959e-08,1.823426268376580569e-04
5.422574842847250084e-08,1.845978707907909501e-04
5.504204773673454287e-08,1.868810157104275490e-04
5.587850353325345390e-08,1.891924009782885508e-04
5.673495717338239105e-08,1.915323752757755785e-04
5.761187515958130820e-08,1.939012922310188016e-04
5.850972244030354486e-08,1.962995098526566611e-04
5.942896112476251338e-08,1.987273905848086061e-04
6.037004907917363502e-08,2.011853013627941682e-04
6.133343839624662973e-08,2.036736136696094585e-04
6.231957372920009398e-08,2.061927035931764040e-04
6.332889048103551200e-08,2.087429518843791681e-04
6.436181283924312654e-08,2.113247440159027454e-04
6.541875164551574414e-08,2.139384702418883942e-04
6.650010208941529202e-08,2.165845256584236886e-04
6.760624121426985237e-08,2.192633102648816894e-04
6.873752522287517428e-08,2.219752290261284538e-04
6.989428656982809656e-08,2.247206919356149009e-04
7.107683082653467105e-08,2.275001140793729017e-04
7.228543330410241473e-08,2.303139157009336468e-04
7.352033541844901645e-08,2.331625222671888616e-04
7.478174078103203153e-08,2.360463645352147951e-04
7.606981099762384250e-08,2.389658786200812856e-04
7.738466115652138089e-08,2.419215060636662634e-04
7.872635498648829288e-08,2.449136939045012192e-04
8.009489966357162724e-08,2.479428947486693262e-04
8.149024024471920795e-08,2.510095668417825594e-04
8.291225370483463050e-08,2.541141741420623154e-04
8.436074255255271906e-08,2.572571863945526723e-04
8.583542799858154219e-08,2.604390792064911970e-04
8.733594264894740713e-08,2.636603341238697731e-04
8.886182269388043838e-08,2.669214387092134762e-04
9.041249956139533158e-08,2.702228866206102926e-04
9.198729100284290582e-08,2.735651776920241542e-04
9.358539157583287913e-08,2.769488180149267970e-04
9.520586248794841837e-08,2.803743200212825953e-04
9.684762076258623010e-08,2.838422025679263787e-04
9.850942768605089388e-08,2.873529910223702826e-04
1.001898764927116267e-07,2.909072173500841367e-04
1.018874693568708212e-07,2.945054200943906706e-04
1.036079339053729426e-07,2.981481358345854202e-04
1.053557958712941461e-07,3.018359099773500632e-04
1.071314621770217365e-07,3.055692998640646241e-04
1.089353491651643683e-07,3.093488697396910001e-04
1.107678832203824504e-07,3.131751908394894571e-04
1.126295014412226913e-07,3.170488414769219465e-04
1.145206523654943513e-07,3.209704071327631699e-04
1.164417967529470347e-07,3.249404805454415629e-04
1.183934084292502294e-07,3.289596618026367596e-04
1.203759751955228460e-07,3.330285584341554413e-04
1.223899998079298788e-07,3.371477855061146781e-04
1.244360010321426441e-07,3.413179657164555863e-04
1.265145147777592598e-07,3.455397294918184192e-04
1.286260953180949155e-07,3.498137150858051108e-04
1.307713166010883101e-07,3.541405686786614740e-04
1.329507736574199444e-07,3.585209444784063755e-04
1.351650841123153446e-07,3.629555048234442611e-04
1.374148898078979449e-07,3.674449202866903060e-04
1.397008585433761380e-07,3.719898697812458119e-04
1.420236859407898038e-07,3.765910406676569724e-04
1.443840974445093768e-07,3.812491288627975028e-04
1.467828504631727662e-07,3.859648389504101527e-04
1.492207366632700544e-07,3.907388842933525851e-04
1.516985844241339478e-07,3.955719871475835083e-04
1.542172614646808498e-07,4.004648787779393668e-04
1.567776776528603012e-07,4.054182995757422514e-04
1.593807880094239974e-07,4.104329991782897113e-04
1.620275959183114447e-07,4.155097365902748270e-04
1.647191565566781437e-07,4.206492803071892341e-04
1.674565805583573429e-07,4.258524084407618992e-04
1.702410379253605166e-07,4.311199088464929543e-04
1.730737622028735382e-07,4.364525792533371787e-04
1.759560549341154531e-07,4.418512273956040235e-04
1.788892904123768268e-07,4.473166711471345154e-04
1.818749207485658238e-07,4.528497386578238856e-04
1.849144812736547543e-07,4.584512684925613193e-04
1.880095962965425730e-07,4.641221097726592505e-04
1.911598887091034420e-07,4.698631166657529020e-04
1.943598984790141801e-07,4.756751402163869515e-04
1.976100172847531435e-07,4.815590579694372492e-04
2.009111864501024866e-07,4.875157597917438948e-04
2.042643915995790190e-07,4.935461466429209854e-04
2.076706660745861082e-07,4.996511307203525560e-04
2.111310945972979981e-07,5.058316356065426476e-04
2.146468171983554236e-07,5.120885964188835260e-04
2.182190334254198004e-07,5.184229599619112226e-04
2.218490068506467195e-07,5.248356848821154018e-04
2.255380698962213977e-07,5.313277418253818879e-04
2.292876289982336839e-07,5.379001135971412523e-04
2.330991701303725547e-07,5.445537953253069439e-04
2.369742647101898179e-07,5.512897946260844964e-04
2.409145759120256567e-07,5.581091317727437506e-04
2.449218654121030101e-07,5.650128398674437568e-04
2.489980005927966076e-07,5.720019650162076101e-04
2.531449622346613219e-07,5.790775665071510843e-04
2.573648527264741072e-07,5.862407169920687148e-04
2.616679969540609298e-07,5.934924941442919341e-04
2.660640506546759095e-07,6.008339842974654184e-04
2.705488875210122785e-07,6.082662978118282514e-04
2.751175467728354913e-07,6.157905589268021507e-04
2.797642369493850457e-07,6.234079058753272005e-04
2.844822651825621504e-07,6.311194910645782962e-04
2.892639616288446247e-07,6.389264812594652775e-04
2.941005987629901977e-07,6.468300577689839719e-04
2.989823052195099032e-07,6.548314166354919814e-04
3.038979738498693634e-07,6.629317688269838063e-04
3.088351636443608673e-07,6.711323404324427179e-04
3.137799951475220934e-07,6.794343728603532973e-04
3.187086011607120945e-07,6.878391139552309788e-04
3.236020707840111588e-07,6.963478215792301505e-04
3.284613487966496117e-07,7.049617822840883530e-04
3.332881725801315701e-07,7.136822987950646336e-04
3.380849759292211512e-07,7.225106900867479375e-04
3.428549605357125742e-07,7.314482915967903277e-04
3.476021727972076171e-07,7.404964554432169870e-04
3.523315862930256103e-07,7.496565506454067876e-04
3.570491902896257747e-07,7.589299633488639889e-04
3.617620846592843034e-07,7.683180970538834153e-04
3.664785816183613925e-07,7.778223728482339030e-04
3.712083147153294605e-07,7.874442296439827490e-04
3.759623555239168829e-07,7.971851244185899649e-04
3.807533385233053756e-07,8.070465324604107890e-04
3.855955946753874018e-07,8.170299476187476177e-04
3.905052942387215152e-07,8.271368825586011960e-04
3.955005993901042699e-07,8.373688690202803339e-04
4.006018272576860413e-07,8.477274580840294185e-04
4.058316240044148845e-07,8.582142204398543516e-04
4.112151506373542638e-07,8.688307466627197316e-04
4.167802812572386823e-07,8.795786474933134152e-04
4.225578145035722090e-07,8.904595541245751301e-04
4.285814296273786552e-07,9.014751183582941918e-04
4.348148167081050521e-07,9.126269778295419870e-04
4.412153599347766957e-07,9.239167932754158369e-04
4.477871636137679025e-07,9.353462712248494229e-04
4.545342890989848807e-07,9.469171393761919306e-04
4.614607396174296700e-07,9.586311468668378549e-04
4.685704437333324179e-07,9.704900645468387535e-04
4.758672373569152473e-07,9.824956852565805421e-04
4.833548441981112582e-07,9.946498241086331252e-04
4.910368545594592312e-07,1.006954318773864735e-03
4.989167023559633968e-07,1.019411029771934065e-03
5.069976402428942042e-07,1.032021840766258417e-03
5.152827127253228194e-07,1.044788658863585922e-03
5.237747271155639664e-07,1.057713414918279695e-03
5.324762221966766242e-07,1.070798063841444259e-03
5.413894344416725363e-07,1.084044584915021519e-03
5.505162616291142116e-07,1.097454982110993319e-03
5.598582236863023024e-07,1.111031284415830468e-03
5.694164205812406355e-07,1.124775546160342379e-03
5.791914870739822212e-07,1.138689847355068728e-03
5.891835441268001213e-07,1.152776294031392871e-03
