Pressure [MeV/fm^3],Energy Density [MeV/fm^3]
9.343418879185772577e-10,9.537129176980109114e-06
9.521360865590865778e-10,9.662948707927640019e-06
9.702451999417993185e-10,9.790428169413435415e-06
9.886752559521833187e-10,9.919589462883052138e-06
1.007432528119618295e-09,1.005045477901688150e-05
1.026523554750278830e-09,1.018304660157437782e-05
1.045955159561566071e-09,1.031738771129127906e-05
1.065734473923964767e-09,1.045350118983058010e-05
1.085868960823083601e-09,1.059141042378822276e-05
1.106366440661905416e-09,1.073113910875428838e-05
1.127235119031032465e-09,1.087271125343074860e-05
1.148483616582884158e-09,1.101615118380658895e-05
1.170121001154536923e-09,1.116148354739135074e-05
1.192156822293104765e-09,1.130873331750803457e-05
1.214601148347370972e-09,1.145792579764642622e-05
1.237464606299752128e-09,1.160908662587787641e-05
1.260758424523691218e-09,1.176224177933258648e-05
1.284494478663252016e-09,1.191741757874055206e-05
1.308685340844068621e-09,1.207464069303725388e-05
1.333344332437918321e-09,1.223393814403532738e-05
1.358485580617099368e-09,1.239533731116336647e-05
1.384124078949532064e-09,1.255886593627312857e-05
1.410275752301128270e-09,1.272455212851643185e-05
1.436957526328517831e-09,1.289242436929305582e-05
1.464150951843585664e-09,1.306251145054202624e-05
1.491820463761591330e-09,1.323484251339910272e-05
1.519974388817756440e-09,1.340944716483055422e-05
1.548621568045969166e-09,1.358635540315049421e-05
1.577771177693003307e-09,1.376559762284441818e-05
1.607432755415799158e-09,1.394720461983692359e-05
1.637616228571241879e-09,1.413120759683225427e-05
1.668331944747717406e-09,1.431763816872881627e-05
1.699590704697473434e-09,1.450652836810885256e-05
1.731403797839185253e-09,1.469791065080459131e-05
1.763783040511085102e-09,1.489181790154214843e-05
1.796740817166681279e-09,1.508828343966441242e-05
1.830290124717477219e-09,1.528734102493442461e-05
1.864444620240197667e-09,1.548902486342045904e-05
1.899218672279986101e-09,1.569336961346441477e-05
1.934627415995782904e-09,1.590041039173486413e-05
1.970686812409771514e-09,1.611018277936632209e-05
2.007413712039390208e-09,1.632272282818629709e-05
2.044825923208029632e-09,1.653806706703173088e-05
2.082942285349203798e-09,1.675625250815646739e-05
2.121782747638801088e-09,1.697731665373149195e-05
2.161368453310991691e-09,1.720129750243963170e-05
2.201721830035654180e-09,1.742823355616662453e-05
2.242866686758725516e-09,1.765816382679039317e-05
2.284828317431898902e-09,1.789112784307043502e-05
2.327633612084569909e-09,1.812716565763935412e-05
2.371270942063140516e-09,1.836631777658334728e-05
2.415669320238638364e-09,1.860862512660075462e-05
2.460838709745228574e-09,1.885412933239538199e-05
2.506793012980082924e-09,1.910287257517314182e-05
2.553546654888964884e-09,1.935489759329701636e-05
2.601114623979879667e-09,1.961024768970501302e-05
2.649512516624434264e-09,1.986896673943143411e-05
2.698756584881853671e-09,2.013109919723310071e-05
2.748863788096014366e-09,2.039669010532246533e-05
2.799851848532123929e-09,2.066578510120935144e-05
2.851739311336976103e-09,2.093843042565321727e-05
2.904545609125131547e-09,2.121467293072787849e-05
2.958291131512806629e-09,2.149456008800077340e-05
3.012997299941978869e-09,2.177813999682871898e-05
3.068686648159118072e-09,2.206546139277230223e-05
3.125382908736279527e-09,2.235657365613119069e-05
3.183111106046922841e-09,2.265152682060244221e-05
3.241897656135051177e-09,2.295037158206427046e-05
3.301770473944006351e-09,2.325315930748764816e-05
3.362759088400678087e-09,2.355994204397813299e-05
3.424894765882124201e-09,2.387077252795055581e-05
3.488210642624676603e-09,2.418570419443920026e-05
3.552741866670649044e-09,2.450479118654618759e-05
3.618525749984962067e-09,2.482808836503084510e-05
3.685601931413383129e-09,2.515565131804308707e-05
3.754012551195811100e-09,2.548753637100378648e-05
3.823787583962480160e-09,2.582380056656856973e-05
3.894807545154422459e-09,2.616450139689624338e-05
3.967052608379897402e-09,2.650969731827661075e-05
4.040544536017785593e-09,2.685944764301996711e-05
4.115305890758834837e-09,2.721381246700164052e-05
4.191360098454317818e-09,2.757285268010844581e-05
4.268731516026879621e-09,2.793662997683188864e-05
4.347445504806431930e-09,2.830520686701044740e-05
4.427528509677793395e-09,2.867864668672376202e-05
4.509008144451945935e-09,2.905701360934121317e-05
4.591913283899599739e-09,2.944037265672788689e-05
4.676274162914184125e-09,2.982878971061065222e-05
4.762122483301497417e-09,3.022233152410731981e-05
4.849491528725334490e-09,3.062106573342198492e-05
4.938416288372312671e-09,3.102506086970962461e-05
5.028933589935166814e-09,3.143438637111328293e-05
5.121082242551993546e-09,3.184911259497705618e-05
5.214903190379450698e-09,3.226931083023847286e-05
5.310439677520913170e-09,3.269505331000374811e-05
5.407737425076150028e-09,3.312641322430975134e-05
5.506844821127375155e-09,3.356346473307621057e-05
5.607813124527839576e-09,3.400628297925253798e-05
5.710696683413327125e-09,3.445494410216302369e-05
5.815553169414538209e-09,3.490952525105478217e-05
5.922443828609353439e-09,3.537010459885301164e-05
6.031433750318513010e-09,3.583676135612770005e-05
6.142592154916905330e-09,3.630957578527717138e-05
6.255891480762323418e-09,3.678862899948151565e-05
6.371144753437212807e-09,3.727400284429346791e-05
6.488375994288326815e-09,3.776578070025800288e-05
6.607620361936637363e-09,3.826404707103519854e-05
6.728914317879910336e-09,3.876888757695883512e-05
6.852295728814369984e-09,3.928038896995449531e-05
6.977803977178677578e-09,3.979863914866960551e-05
7.105480080508640077e-09,4.032372717381893523e-05
7.235366820229664946e-09,4.085574328375000659e-05
7.367508880554675371e-09,4.139477891023187655e-05
7.501952998198754509e-09,4.194092669447199457e-05
7.638748123667705822e-09,4.249428050336533037e-05
7.777945594926626113e-09,4.305493544598016259e-05
7.919599324306409907e-09,4.362298789028533287e-05
8.063765999561068319e-09,4.419853548012358672e-05
8.210505300047148636e-09,4.478167715243614437e-05
8.359880129058414771e-09,4.537251315474356340e-05
8.511956863414423427e-09,4.597114506288809072e-05
8.666805621471491142e-09,4.657767579904318895e-05
8.824500550798096992e-09,4.719220964999582105e-05
8.985120136835129522e-09,4.781485228570755779e-05
9.148747533944279879e-09,4.844571077816046457e-05
9.315470920335749564e-09,4.908489362049413030e-05
9.485383878459796825e-09,4.973251074644075709e-05
9.658585802545106681e-09,5.038867355006479551e-05
9.835182335071869284e-09,5.105349490581453193e-05
1.001528583407820090e-08,5.172708918889289213e-05
1.019875624104074567e-08,5.240957171691237724e-05
1.038536181922832573e-08,5.310105913022117162e-05
1.057515663843741615e-08,5.380167025333321747e-05
1.076819729648253445e-08,5.451152548251274175e-05
1.096454248690160062e-08,5.523074680547838375e-05
1.116425316325308153e-08,5.595945782271218597e-05
1.136739271659958550e-08,5.669778376907475004e-05
1.157402716712093750e-08,5.744585153573272422e-05
1.178422537086154273e-08,5.820378969240436873e-05
1.199805924268207953e-08,5.897172850992938556e-05
1.221560399655535639e-08,5.974979998316955876e-05
1.243693840441960386e-08,6.053813785424666966e-05
1.266214507488098095e-08,6.133687763612459206e-05
1.289131075313994953e-08,6.214615663654283161e-05
1.312452664360429796e-08,6.296611398230838035e-05
1.336188875674510128e-08,6.379689064395409272e-05
1.360349828185096035e-08,6.463862946077103663e-05
1.384946198744090568e-08,6.549147516622311400e-05
1.409989265120803960e-08,6.635557441375263097e-05
1.435490952148393632e-08,6.723107580298543732e-05
1.461463881233918837e-08,6.811812990634464747e-05
1.487921423456851560e-08,6.901688929608305325e-05
1.514877756494929103e-08,6.992750857174348479e-05
1.542347925631190748e-08,7.085014438805771768e-05
1.570347909111836382e-08,7.178495548329480902e-05
1.598894688141311901e-08,7.273210270806971796e-05
1.628006321818777384e-08,7.369174905462402847e-05
1.657657671232691932e-08,7.466405865285193229e-05
1.687813959015251952e-08,7.564919758354248403e-05
1.718483947594033170e-08,7.664733514542618165e-05
1.749676719753392943e-08,7.765864287562734673e-05
1.781401691845083630e-08,7.868329457941464558e-05
1.813668639852547595e-08,7.972146636064060738e-05
1.846487727546754605e-08,8.077333665262406595e-05
1.879869536883187485e-08,8.183908624948491712e-05
1.913825100799361501e-08,8.291889833793958072e-05
1.948365938582668860e-08,8.401295852956693858e-05
1.983504093989346186e-08,8.512145489355423520e-05
2.019252176307080014e-08,8.624457798993343091e-05
2.055623404566158152e-08,8.738252090331746704e-05
2.092631655117293126e-08,8.853547927714864045e-05
2.130291512808167997e-08,8.970365134846888593e-05
2.168618326005628893e-08,9.088723798322480057e-05
2.207628265726137214e-08,9.208644271211848269e-05
2.247338389153812142e-08,9.330147176701766994e-05
2.287766707843050076e-08,9.453253411793768575e-05
2.328932260921469067e-08,9.577984151060882768e-05
2.370855193628819031e-08,9.704360850464348234e-05
2.413556841548577391e-08,9.832405251231787443e-05
2.457059820911266806e-08,9.962139383798333076e-05
2.501388125372253532e-08,1.009358557181236338e-04
2.546567229691828664e-08,1.022676643620743349e-04
2.592624200772031263e-08,1.036170489934224451e-04
2.639587816532792835e-08,1.049842418921040132e-04
2.687439397566879280e-08,1.063694772450749724e-04
2.736120810989619475e-08,1.077729913836793165e-04
2.785644698669168797e-08,1.091950254896667608e-04
2.836025036943110793e-08,1.106358239550162090e-04
2.887276157836613661e-08,1.120956344001892990e-04
2.939412772554303395e-08,1.135747077171920811e-04
2.992449996913983461e-08,1.150732981132457871e-04
3.046403378866776610e-08,1.165916631550771934e-04
3.101288928257980853e-08,1.181300638138397467e-04
3.157123148993306433e-08,1.196887645106777833e-04
3.213923073786099620e-08,1.212680331629453767e-04
3.271706301672833621e-08,1.228681412310921863e-04
3.330491038496578459e-08,1.244893637662300358e-04
3.390296140571264845e-08,1.261319794583922696e-04
3.451141161753570883e-08,1.277962706855002265e-04
3.513046404164125796e-08,1.294825235630518722e-04
3.576032972815414909e-08,1.311910279945456038e-04
3.640122834420551909e-08,1.329220777226558655e-04
3.705338880674829745e-08,1.346759703811758926e-04
3.771704996320780929e-08,1.364530075477438727e-04
3.839246132327485114e-08,1.382534947973697629e-04
3.907988384536063519e-08,1.400777417567802732e-04
3.977959078145824177e-08,1.419260621596001221e-04
4.049186858439349473e-08,1.437987739023894056e-04
4.121701788170166818e-08,1.456961991015554556e-04
4.195535452063481744e-08,1.476186641511615251e-04
4.270721068908899061e-08,1.495664997816519470e-04
4.344901684974309464e-08,1.515400403347683242e-04
4.362430786116524463e-08,1.535396171925783033e-04
4.348753028994070905e-08,1.555655761401456341e-04
4.361157843267766915e-08,1.576182704268692600e-04
4.395605524013849360e-08,1.596980499127617506e-04
4.447017881076545582e-08,1.618052715901728230e-04
4.514035062640950309e-08,1.639402980076084507e-04
4.595010362139124579e-08,1.661034965626981242e-04
4.687982350508620973e-08,1.682952395720421095e-04
4.790644899668162252e-08,1.705159043424093513e-04
4.900314956257558978e-08,1.727658732433333736e-04
5.013897915919762536e-08,1.750455337811537197e-04
5.127850439112136720e-08,1.773552786745547308e-04
5.238140539591469179e-08,1.796955059316539727e-04
5.340204766291251781e-08,1.820666189286979672e-04
5.436022177068117176e-08,1.844690241385107553e-04
5.533438884854755695e-08,1.869031318220526591e-04
5.632549933086543570e-08,1.893693605110695875e-04
5.733391672225330319e-08,1.918681343088975133e-04
5.836002188146680646e-08,1.943998829455257141e-04
5.940421434661794808e-08,1.969650418545887871e-04
6.046691375954685496e-08,1.995640522515800994e-04
6.154856139611317087e-08,2.021973612133169771e-04
6.264962180960337869e-08,2.048654217586883691e-04
6.377058459490675682e-08,2.075686929307181644e-04
6.491196628159527110e-08,2.103076398799768221e-04
6.607430612872209966e-08,2.130827339333247496e-04
6.725730263659330415e-08,2.158944504550146281e-04
6.846080198432356731e-08,2.187432714815997631e-04
6.968523400122792657e-08,2.216296869194490991e-04
7.093104844801215403e-08,2.245541931754150818e-04
7.219871653707672401e-08,2.275172932458873951e-04
7.348873256714407632e-08,2.305194968072689821e-04
7.480161568004217857e-08,2.335613203079091251e-04
7.613791174797557876e-08,2.366432870615304749e-04
7.749819540014469334e-08,2.397659273421884373e-04
7.888307219813499776e-08,2.429297784808039540e-04
8.029318097009193948e-08,2.461353849633097926e-04
8.172913651212548408e-08,2.493832983733039227e-04
8.319035900727769162e-08,2.526740744105831506e-04
8.467689195194035953e-08,2.560082777643928184e-04
8.618926894797278935e-08,2.593864818599956571e-04
8.772804857769933186e-08,2.628092677345796480e-04
8.929381631163554409e-08,2.662772241418145231e-04
9.088718655948999591e-08,2.697909476580961506e-04
9.250880487424779999e-08,2.733510427905241815e-04
9.415935031976477311e-08,2.769581220866552929e-04
9.583953801296345036e-08,2.806128062460813612e-04
9.755012185242338439e-08,2.843157242338789680e-04
9.929189744590271756e-08,2.880675133959843402e-04
1.010655196234578617e-07,2.918688190848370430e-04
1.028701461351840042e-07,2.957202911814431280e-04
1.047060422692292815e-07,2.996225911111357731e-04
1.065738669822308825e-07,3.035763900597492114e-04
1.084743099098018126e-07,3.075823681264289546e-04
1.104080937011743220e-07,3.116412144463750252e-04
1.123759765289885585e-07,3.157536273155892286e-04
1.143787547862084004e-07,3.199203143176800783e-04
1.164172659829092987e-07,3.241419924527785541e-04
1.184923918564906413e-07,3.284193882686228068e-04
1.206050617097237944e-07,3.327532379938717114e-04
1.227562559919535772e-07,3.371442876737077679e-04
1.249466025009903944e-07,3.415932922136747599e-04
1.271750271764879347e-07,3.461010118903515222e-04
1.294420473353751123e-07,3.506682213231803206e-04
1.317484799618917135e-07,3.552957061370996318e-04
1.340951803602304088e-07,3.599842623954507869e-04
1.364830450732328239e-07,3.647346967441784872e-04
1.389130150198236640e-07,3.695478265584167268e-04
1.413860788661345838e-07,3.744244800915267463e-04
1.439032766462187303e-07,3.793654966266521260e-04
1.464657036492674737e-07,3.843717266308620305e-04
1.490745145913065143e-07,3.894440319119556832e-04
1.517309280904846130e-07,3.945832857780030953e-04
1.544354691570081183e-07,3.997903711444317221e-04
1.571868739111759259e-07,4.050661777327530899e-04
1.599859379550421919e-07,4.104116125996838281e-04
1.628336713015307972e-07,4.158275953177130013e-04
1.657311312870343086e-07,4.213150576820665484e-04
1.686794261691056889e-07,4.268749438799447908e-04
1.716797189935088681e-07,4.325082106625910091e-04
1.747332317490293273e-07,4.382158275202644891e-04
1.778412498296161374e-07,4.439987768602021169e-04
1.810051268246687420e-07,4.498580541876513565e-04
1.842262896595946022e-07,4.557946682900632963e-04
1.875062441101609461e-07,4.618096414245389538e-04
1.908452992978040907e-07,4.679040060232162119e-04
1.942420889976969490e-07,4.740788035840081565e-04
1.976977183134426733e-07,4.803350961291222689e-04
2.012134353301275240e-07,4.866739600419840825e-04
2.047905465651514912e-07,4.930964860214893811e-04
2.084304214038396992e-07,4.996037792809395221e-04
2.121344968668798935e-07,5.061969597503527488e-04
2.159042827322462346e-07,5.128771622822476603e-04
2.197413670357090462e-07,5.196455368609944649e-04
2.236474219755599360e-07,5.265032488158421673e-04
2.276242102487970501e-07,5.334514790377265859e-04
2.316735918477366323e-07,5.404914241999786775e-04
2.357955059787755354e-07,5.476242914062323967e-04
2.399885844502211648e-07,5.548513000862868513e-04
2.442542764693926581e-07,5.621736935638085029e-04
2.485941275063295811e-07,5.695927317768596527e-04
2.530097557651337800e-07,5.771096914287688609e-04
2.575028577078072638e-07,5.847258662218379885e-04
2.620752139909932650e-07,5.924425670950672932e-04
2.667286958437940366e-07,6.002611224660122030e-04
2.714652719166366948e-07,6.081828784768924384e-04
2.762870156330511092e-07,6.162091992450833720e-04
2.811961130782390421e-07,6.243414671181194038e-04
2.861948714604444480e-07,6.325810829333470458e-04
2.912830447517059296e-07,6.409294584939657100e-04
2.964597199082816702e-07,6.493880224820955957e-04
3.017265612650912509e-07,6.579582300550172909e-04
3.070852913480791867e-07,6.666415556910350055e-04
3.125376943141444205e-07,6.754394934537130126e-04
3.180856202253355975e-07,6.843535572620058124e-04
3.237309896459581669e-07,6.933852811648454507e-04
3.294757985850854806e-07,7.025362196203007023e-04
3.353221238084277657e-07,7.118079477794351856e-04
3.412721285450452947e-07,7.212020617749950561e-04
3.473280686160335697e-07,7.307201790150583348e-04
3.535001984117832798e-07,7.403639385986093835e-04
3.576679508273198180e-07,7.501349758055604437e-04
3.561133100812859603e-07,7.600349172108952691e-04
3.575591698920876191e-07,7.700654525534292002e-04
3.639147748936075177e-07,7.802283548244184344e-04
3.703728004639873833e-07,7.905254104967565252e-04
3.769449873110106167e-07,8.009583751675976694e-04
3.836335655533689170e-07,8.115290612663881914e-04
3.888470985974876699e-07,8.222392460794746135e-04
3.883245121227908539e-07,8.330907490440255707e-04
3.910930489795237056e-07,8.440854713470380671e-04
3.968630151903989772e-07,8.552252891695957511e-04
4.046567225955287936e-07,8.665121271807013550e-04
4.135043658960575685e-07,8.779479385557889841e-04
4.222942695416104217e-07,8.895347038636860701e-04
4.300431365789231952e-07,9.012744273603560648e-04
4.376708728830754839e-07,9.131691128650803709e-04
4.454323818789073201e-07,9.252208037480894954e-04
4.533308891505001712e-07,9.374315746097941710e-04
4.613697966402797314e-07,9.498035277048168419e-04
4.695526936883493125e-07,9.623387933240026013e-04
4.778808645690941725e-07,9.750395236350404117e-04
4.863553826867405903e-07,9.879078995556147842e-04
4.949793348502381418e-07,1.000946136523534402e-03
5.037559404526318501e-07,1.014156479541853490e-03
5.126885609991565553e-07,1.027541203597540174e-03
5.217799220836191316e-07,1.041102611659767236e-03
5.310301526565068419e-07,1.054843028541517427e-03
5.404425309958758596e-07,1.068764818750239090e-03
5.500209363773588475e-07,1.082870379601708023e-03
5.597694579134261207e-07,1.097162140451022174e-03
5.696923663328703637e-07,1.111642563031008894e-03
5.797905583159085526e-07,1.126314132362521772e-03
5.900657721477729490e-07,1.141179368591109435e-03
6.005219682863300368e-07,1.156240831041857944e-03
6.111632994559601954e-07,1.171501113185115933e-03
6.219941250026088692e-07,1.186962843119239094e-03
6.330176554392593255e-07,1.202628680165637211e-03
6.442339971400942592e-07,1.218501309929700916e-03
6.556472565851255128e-07,1.234583464999999694e-03
6.672620955758503565e-07,1.250877915466465720e-03
6.790834225740162180e-07,1.267387468512664022e-03
6.911162699324933595e-07,1.284114968537884921e-03
7.033615286467594222e-07,1.301063285148256008e-03
7.158217674545130795e-07,1.318235330570158119e-03
7.285016105446889925e-07,1.335634061329193933e-03
7.414058891931800343e-07,1.353262473372593118e-03
7.545396568379178156e-07,1.371123602624633488e-03
7.679061728639227141e-07,1.389220519821475399e-03
7.815058917925501322e-07,1.407556328090163889e-03
7.953441150096074431e-07,1.426134185047186901e-03
8.094266617225101840e-07,1.444957291211512989e-03
8.237596738263560169e-07,1.464028890001779120e-03
8.383492957745236147e-07,1.483352267365703426e-03
8.531961406404317817e-07,1.502930736579525649e-03
8.683036877442554984e-07,1.522767663257713899e-03
8.836775503901511996e-07,1.542866463514979379e-03
8.993235932546781831e-07,1.563230599083749060e-03
9.152479506672918361e-07,1.583863577962476730e-03
