Pressure [MeV/fm^3],Energy Density [MeV/fm^3]
9.334769780502014536e-10,9.541160299576610372e-06
9.508160596208200513e-10,9.663925833380106808e-06
9.684543828021716955e-10,9.788271025458416963e-06
9.863975238273071443e-10,9.914216203615046184e-06
1.004651279704891068e-09,1.004178195747758409e-05
1.023221684976169824e-09,1.017098914189155046e-05
1.042115029754762769e-09,1.030185888035982671e-05
1.061337879137497580e-09,1.043441256852835740e-05
1.080897094080106549e-09,1.056867187771890786e-05
1.100799853837506050e-09,1.070465875850957066e-05
1.121053680074647907e-09,1.084239544436379529e-05
1.141666462760575704e-09,1.098190445530879815e-05
1.162646487965336688e-09,1.112320860166405757e-05
1.184002467686867469e-09,1.126633098782078497e-05
1.205743571842846317e-09,1.141129501607322943e-05
1.227879462570868428e-09,1.155812439050265063e-05
1.250420330989141885e-09,1.170684312091487183e-05
1.273376936579274832e-09,1.185747552683235125e-05
1.296760649362638290e-09,1.201004624154170523e-05
1.320583495052288114e-09,1.216458021619765068e-05
1.344858203373541038e-09,1.232110272398438982e-05
1.369598259758061261e-09,1.247963936433544027e-05
1.394817960628762688e-09,1.264021606721301149e-05
1.420532472505999393e-09,1.280285909744798982e-05
1.446754407832839314e-09,1.296759505274669892e-05
1.473442566191991025e-09,1.313445077415224288e-05
1.500586257582609092e-09,1.330345350524269186e-05
1.528193491119572735e-09,1.347463087472411629e-05
1.556272564159851878e-09,1.364801086715210018e-05
1.584832084221559225e-09,1.382362182754493840e-05
1.613880992619092129e-09,1.400149246605891633e-05
1.643428589934184243e-09,1.418165186272660198e-05
1.673484563450349358e-09,1.436412947225922809e-05
1.704059016686294184e-09,1.454895512891413302e-05
1.735162501172481580e-09,1.473615905142836515e-05
1.766806050624125561e-09,1.492577184801947736e-05
1.799001217673562538e-09,1.511782452145471082e-05
1.831760113335154349e-09,1.531234847418964749e-05
1.865095449386721985e-09,1.550937551357748473e-05
1.899020583862999245e-09,1.570893785715026371e-05
1.933549569868718739e-09,1.591106813797311882e-05
1.968697207931856371e-09,1.611579941007296608e-05
2.004479102131161584e-09,1.632316515394285859e-05
2.040911720246573801e-09,1.653319928212342550e-05
2.078012458196370871e-09,1.674593614486271224e-05
2.115799709041106823e-09,1.696141053585592651e-05
2.154292936851523402e-09,1.717965769806652649e-05
2.193512755755731415e-09,1.740071332963015913e-05
2.233481014500171253e-09,1.762461358984309832e-05
2.274220886879151841e-09,1.785139510523669427e-05
2.315756968409267803e-09,1.808109497573961611e-05
2.358100592450630405e-09,1.831375075240259981e-05
2.401177806972873963e-09,1.854940030481136106e-05
2.444984480138195069e-09,1.878808212670011118e-05
2.489533360749614915e-09,1.902983523981366994e-05
2.534837658426328408e-09,1.927469916858073662e-05
2.580911078825715570e-09,1.952271394664008909e-05
2.627767861625363887e-09,1.977392012345516919e-05
2.675422821457832624e-09,2.002835877101873129e-05
2.723891392003124124e-09,2.028607149064894346e-05
2.773189673456892825e-09,2.054710041987846899e-05
2.823334483606220140e-09,2.081148823943811078e-05
2.874343412759450446e-09,2.107927818033665152e-05
2.926234882792060022e-09,2.135051403103849568e-05
2.979028210587015637e-09,2.162524014474087177e-05
3.032743676165453173e-09,2.190350144675231261e-05
3.087402595821993351e-09,2.218534344197422970e-05
3.143027400598523955e-09,2.247081222248746549e-05
3.199641720450995968e-09,2.275995447524567673e-05
3.257270474485677302e-09,2.305281748987757185e-05
3.315939967664544150e-09,2.334944916660007907e-05
3.375677994404015471e-09,2.364989802424441725e-05
3.436513949517302655e-09,2.395421320839738696e-05
3.498478946978120807e-09,2.426244449966000611e-05
3.561605947012695554e-09,2.457464232202584143e-05
3.625929892057831634e-09,2.489085775138152962e-05
3.691487852155428131e-09,2.521114252413172760e-05
3.758319180388379466e-09,2.553554904595128371e-05
3.826447618564303041e-09,2.586413036407218994e-05
3.895755781711243971e-09,2.619693992200475825e-05
3.966229951995226895e-09,2.653403206471027253e-05
4.037890329761973426e-09,2.687546190558604155e-05
4.110757839338955587e-09,2.722128526814902367e-05
4.184854184440630700e-09,2.757155869526935668e-05
4.260201907924000271e-09,2.792633945853018371e-05
4.336824456198524753e-09,2.828568556771604854e-05
4.414746248613905364e-09,2.864965578043203551e-05
4.493992752169711038e-09,2.901830961185588686e-05
4.574590561912726573e-09,2.939170734462546238e-05
4.656567487411004470e-09,2.976991003886394013e-05
4.739952645718054448e-09,3.015297954234514696e-05
4.824776561266629350e-09,3.054097850080179021e-05
4.911071273159005397e-09,3.093397036837887431e-05
4.998870450349811232e-09,3.133201941823533451e-05
5.088209515248359490e-09,3.173519075329651369e-05
5.179125776300007369e-09,3.214355031716028416e-05
5.271658570140808486e-09,3.255716490516007719e-05
5.365849413956280475e-09,3.297610217558760205e-05
5.461742168713902634e-09,3.340043066107852731e-05
5.559383213980134941e-09,3.383021978016454660e-05
5.658821635076080817e-09,3.426553984899499320e-05
5.760109423372070192e-09,3.470646209323175764e-05
5.863301690570065260e-09,3.515305866012093019e-05
5.968456897874370952e-09,3.560540263074521373e-05
6.075637101005658299e-09,3.606356803246069852e-05
6.184905173907798587e-09,3.652762984504541330e-05
6.296120197730777259e-09,3.699766357708795015e-05
6.409196251975493624e-09,3.747374583093161305e-05
6.524165219555921913e-09,3.795595444831166364e-05
6.641060104550556140e-09,3.844436827411887579e-05
6.759915117874629452e-09,3.893906716946319598e-05
6.880765769700792215e-09,3.944013202491784880e-05
7.003648969100866737e-09,3.994764477394703182e-05
7.128603131411626788e-09,4.046168840652042523e-05
7.255668293859577653e-09,4.098234698291791791e-05
7.384886240013612006e-09,4.150970564772807380e-05
7.516300633670483585e-09,4.204385064404367220e-05
7.649957162816115802e-09,4.258486932785827278e-05
7.785903694346301688e-09,4.313285018266752540e-05
7.924190440272950585e-09,4.368788283427884321e-05
8.064870136187720484e-09,4.425005806583416895e-05
8.207998232802584242e-09,4.481946783304912766e-05
8.353633101438078709e-09,4.539620527967370224e-05
8.501836254383649159e-09,4.598036475317841625e-05
8.652672581111773734e-09,4.657204182067086227e-05
8.806210601387768066e-09,4.717133328504718363e-05
8.962522736381407408e-09,4.777833720138376794e-05
9.121685598953968497e-09,4.839315289357406510e-05
9.283780304366198480e-09,4.901588097121593743e-05
9.448892802728443353e-09,4.964662334675507796e-05
9.617114234594537198e-09,5.028548325289025676e-05
9.788541311186038068e-09,5.093256526024639237e-05
9.963276720823248008e-09,5.158797529532163493e-05
1.014131333229918796e-08,5.225182039915063722e-05
1.032234672948230130e-08,5.292420832746978733e-05
1.050639716510235917e-08,5.360524895775862315e-05
1.069351652935612980e-08,5.429505365149289031e-05
1.088375855907030674e-08,5.499373520575518971e-05
1.107717897866915077e-08,5.570140787197605585e-05
1.127383565220334143e-08,5.641818737493739847e-05
1.147378874721287319e-08,5.714419093204307134e-05
1.167710091124603163e-08,5.787953727286147408e-05
1.188383746190901461e-08,5.862434665894557430e-05
1.209406659137589470e-08,5.937874090393533718e-05
1.230785958634762884e-08,6.014284339394825480e-05
1.252529106451089262e-08,6.091677910826357221e-05
1.274643922861354537e-08,6.170067464030597692e-05
1.297138613934342951e-08,6.249465821893493856e-05
1.320021800827118980e-08,6.329885973004602772e-05
1.343302551219615785e-08,6.411341073849029899e-05
1.366990413031753779e-08,6.493844451031903638e-05
1.391095450574089651e-08,6.577409603536033911e-05
1.415628283292317009e-08,6.662050205013522524e-05
1.440600127275795681e-08,6.747780106112026002e-05
1.466022839710717264e-08,6.834613336836494856e-05
1.491908966469576264e-08,6.922564108947164524e-05
1.518271793040293948e-08,7.011646818394668020e-05
1.545125399010720319e-08,7.101876047793116004e-05
1.572484716337350238e-08,7.193266568932072595e-05
1.600365591640920870e-08,7.285833345328366132e-05
1.628784847759402939e-08,7.379591534806970101e-05
1.657715844616055701e-08,7.474556388291890433e-05
1.687127317915789777e-08,7.570743343190619590e-05
1.717027408140319370e-08,7.668168128546140204e-05
1.747424535476520168e-08,7.766846676206160774e-05
1.778327421054817992e-08,7.866795123474706907e-05
1.809745109863034083e-08,7.968029815801179873e-05
1.841686995453202280e-08,8.070567309507606184e-05
1.874162846566426452e-08,8.174424374554755822e-05
1.907182835808822930e-08,8.279617997347954461e-05
1.940757570520023922e-08,8.386165383583317457e-05
1.974898125984710725e-08,8.494083961135274325e-05
2.009616081147114393e-08,8.603391382986176519e-05
2.044923556998486043e-08,8.714105530198872150e-05
2.080833257818230096e-08,8.826244514933161069e-05
2.117358515460646377e-08,8.939826683507064099e-05
2.154513336891224792e-08,9.054870619503857792e-05
2.192312455189088492e-08,9.171395146925889795e-05
2.230771384245620471e-08,9.289419333396242782e-05
2.269906477403500020e-08,9.408962493409283689e-05
2.309734990295441022e-08,9.530044191631265157e-05
2.350275148157845676e-08,9.652684246252139257e-05
2.391546217911462045e-08,9.776902732389796454e-05
2.433568585318969475e-08,9.902719985547980722e-05
2.476363837548347818e-08,1.003015660512927940e-04
2.519954851490825368e-08,1.015923345800441840e-04
2.564365888203430214e-08,1.028997168213944700e-04
2.609622693868512504e-08,1.042239269028220823e-04
2.655749785541946392e-08,1.055651816687459881e-04
2.702691894631514617e-08,1.069236988146128988e-04
2.750426732085761076e-08,1.082996996563190202e-04
2.798967052566764306e-08,1.096934092137813449e-04
2.848325918687571840e-08,1.111050554058657552e-04
2.898516720596890371e-08,1.125348690880784711e-04
2.949553197150322879e-08,1.139830840907755851e-04
3.001449458783900451e-08,1.154499372579003992e-04
3.054220012213222551e-08,1.169356684862568461e-04
3.107879787089616961e-08,1.184405207653291454e-04
3.162444164753327973e-08,1.199647402176578175e-04
3.217929009232779525e-08,1.215085761397816512e-04
3.274350700648668114e-08,1.230722810437566840e-04
3.331726171191820243e-08,1.246561106992624809e-04
3.390072943854642139e-08,1.262603241763077060e-04
3.449409174107484660e-08,1.278851838885458289e-04
3.509753694723420398e-08,1.295309556372133662e-04
3.571126063967900858e-08,1.311979086557028969e-04
3.633546617383464983e-08,1.328863156547837525e-04
3.697036523414160528e-08,1.345964528684836094e-04
3.761617843129796808e-08,1.363286001006448896e-04
3.827313594326402424e-08,1.380830407721697379e-04
3.894147820296594674e-08,1.398600619689691061e-04
3.962145663581840732e-08,1.416599544906307461e-04
4.031333445037996373e-08,1.434830128998220203e-04
4.101738748566056474e-08,1.453295355724443076e-04
4.173390511881787210e-08,1.471998247485561094e-04
4.246319123720955770e-08,1.490941865840826358e-04
4.321349118378099556e-08,1.510129311884216019e-04
4.362846721761576605e-08,1.529563669699355222e-04
4.353836641837034484e-08,1.549248090736622294e-04
4.352009453946617730e-08,1.569185850219770740e-04
4.378103061128365006e-08,1.589380208552095832e-04
4.420835083832535618e-08,1.609834447271898754e-04
4.479057127036618625e-08,1.630551914761518048e-04
4.551372307989783279e-08,1.651536003062601548e-04
4.636111499163921666e-08,1.672790148488059910e-04
4.731307811795468473e-08,1.694317832245469569e-04
4.834669205135507538e-08,1.716122581072326316e-04
4.943549099549433394e-08,1.738207967883542758e-04
5.054914864226248649e-08,1.760577612431597880e-04
5.165314042448971216e-08,1.783235181979784579e-04
5.270838169117029906e-08,1.806184391989009460e-04
5.367387710583660651e-08,1.829429005785722579e-04
5.461234264055100052e-08,1.852972800741319753e-04
5.556668467072590701e-08,1.876819613825912194e-04
5.653722924465154586e-08,1.900973346944005509e-04
5.752431726319761259e-08,1.925437952474353027e-04
5.852830558613840296e-08,1.950217433942482066e-04
5.954956821955042556e-08,1.975315846703567559e-04
6.058849758969449368e-08,2.000737298635881260e-04
6.164550590913116860e-08,2.026485950845085138e-04
6.272102664117316793e-08,2.052566018379621581e-04
6.381551606915536811e-08,2.078981770957476064e-04
6.492945497740239980e-08,2.105737533704609907e-04
6.606334540557939439e-08,2.132837687775314460e-04
6.721689693049183700e-08,2.160286650125894286e-04
6.838994423569706969e-08,2.188088897964324947e-04
6.958288546237486598e-08,2.216248980708189823e-04
7.079613672025365927e-08,2.244771506648896345e-04
7.203013342343997249e-08,2.273661143738192310e-04
7.328533172419849943e-08,2.302922620386914690e-04
7.456221005122771588e-08,2.332560726276267495e-04
7.586127075938103177e-08,2.362580313181957448e-04
7.718304189821376183e-08,2.392986295811482401e-04
7.852807910719212090e-08,2.423783652654918600e-04
7.989696764588349710e-08,2.454977426849565139e-04
8.129032456795679942e-08,2.486572727058796351e-04
8.270800752636059433e-08,2.518574707491399436e-04
8.414961441527162548e-08,2.550988581892211192e-04
8.561563128253579569e-08,2.583819654591233109e-04
8.710656793557681312e-08,2.617073298627787680e-04
8.862295785998309012e-08,2.650754956624304035e-04
9.016535998063650521e-08,2.684870141719838238e-04
9.173436055126800934e-08,2.719424438518388068e-04
9.333057518098313161e-08,2.754423504052364935e-04
9.495465100683060291e-08,2.789873068761598092e-04
9.660726902204729732e-08,2.825778937488306422e-04
9.828914657020521700e-08,2.862146990488421625e-04
1.000010400161154994e-07,2.898983184459733888e-04
1.017430527347019954e-07,2.936293535166214163e-04
1.035144808118719649e-07,2.974084114395811177e-04
1.053158813471038116e-07,3.012361105784748983e-04
1.071478754427499424e-07,3.051130774044551641e-04
1.090111126552367675e-07,3.090399465040644090e-04
1.109062731047905073e-07,3.130173606883162522e-04
1.128340697391248163e-07,3.170459711035191700e-04
1.147952507613418899e-07,3.211264373438862865e-04
1.167906022329363656e-07,3.252594275659800144e-04
1.188209508634612369e-07,3.294456186050372451e-04
1.208871669991302157e-07,3.336856960932285915e-04
1.229901678233823995e-07,3.379803545799017761e-04
1.251303783308872311e-07,3.423302961963834031e-04
1.273067849634678700e-07,3.467362282305956589e-04
1.295199614172484052e-07,3.511988713738579916e-04
1.317706675976038521e-07,3.557189560712172970e-04
1.340596981917039778e-07,3.602972222335372194e-04
1.363878852503461163e-07,3.649344193650406586e-04
1.387561009583555963e-07,3.696313066929105820e-04
1.411652606061166838e-07,3.743886532990051380e-04
1.436163257755745956e-07,3.792072382537407414e-04
1.461103077548752908e-07,3.840878507522041689e-04
1.486482711966812082e-07,3.890312902525534062e-04
1.512313380361265057e-07,3.940383666167709964e-04
1.538603355342389796e-07,3.991098992925865550e-04
1.565339927862574215e-07,4.042467125796414301e-04
1.592527795085819766e-07,4.094496461258462293e-04
1.620176227784758150e-07,4.147195516005400089e-04
1.648294917101305399e-07,4.200572917122734166e-04
1.676894005699578115e-07,4.254637403577731371e-04
1.705984121196014383e-07,4.309397827733289863e-04
1.735576412018528940e-07,4.364863156886657821e-04
1.765682585855956253e-07,4.421042474833687804e-04
1.796314950869008932e-07,4.477944983459316891e-04
1.827486459844536669e-07,4.535580004355000620e-04
1.859210757486051993e-07,4.593956980463886246e-04
1.891500620166302574e-07,4.653085473366398218e-04
1.924342732893614091e-07,4.712975096202428943e-04
1.957738646148824183e-07,4.773635626928260530e-04
1.991699666552068103e-07,4.835076995863516218e-04
2.026237608720707429e-07,4.897309262096503869e-04
2.061364832867094481e-07,4.960342615226574943e-04
2.097094285147443633e-07,5.024187377135157359e-04
2.133439540945383793e-07,5.088854003786193007e-04
2.170414851285227742e-07,5.154353087056874920e-04
2.208035192581990402e-07,5.220695356599428395e-04
2.246316319948019552e-07,5.287891681734916208e-04
2.285274824289600833e-07,5.355953073379930924e-04
2.324927986475313809e-07,5.424890685436718806e-04
2.365265638775469790e-07,5.494715739046487912e-04
2.406282601804915435e-07,5.565439613832809818e-04
2.447992692365155444e-07,5.637073888377653599e-04
2.490410346088905381e-07,5.709630291453337853e-04
2.533550663273423236e-07,5.783120704059094980e-04
2.577429458070972690e-07,5.857557161491434372e-04
2.622063311260620029e-07,5.932951855449275979e-04
2.667469626839464618e-07,6.009317136174781217e-04
2.713666692686174023e-07,6.086665514630931837e-04
2.760673745565294056e-07,6.165009664716929010e-04
2.808511040757302096e-07,6.244362425522499010e-04
2.857199926616921503e-07,6.324736803622301373e-04
2.906742309485444328e-07,6.406145915471944370e-04
2.957125279540873244e-07,6.488603004644070624e-04
3.008363917424937525e-07,6.572121568169019207e-04
3.060474125913734161e-07,6.656715278739667096e-04
3.113472359571086051e-07,6.742397986163275623e-04
3.167375662004304692e-07,6.829183719742924286e-04
3.222201705865978618e-07,6.917086690697173525e-04
3.277968835788458315e-07,7.006121294618950683e-04
3.334696114449424890e-07,7.096302113974679382e-04
3.392403371979420877e-07,7.187643920644776630e-04
3.451111258935383408e-07,7.280161678506589943e-04
3.510841303078229871e-07,7.373870546061019136e-04
3.569013060989410176e-07,7.468785826094443856e-04
3.570163858455337179e-07,7.564922486564594570e-04
3.558593015135917212e-07,7.662296070954510577e-04
3.608123098585097385e-07,7.760922559972470913e-04
3.670570716353250778e-07,7.860818766807364669e-04
3.734094436839915434e-07,7.962000963353418849e-04
3.798716874671439160e-07,8.064485845142968555e-04
3.864944345318342586e-07,8.168290002833909682e-04
3.888172945311452854e-07,8.273430084564196161e-04
3.888705298089588433e-07,8.379923370361625108e-04
3.927818976802867823e-07,8.487787424565000453e-04
3.991587385370262044e-07,8.597039824764663579e-04
4.071830614406959001e-07,8.707698551576421517e-04
4.159158086980100156e-07,8.819781830911153529e-04
4.242862001674576486e-07,8.933308138278161321e-04
4.317023032535795065e-07,9.048296111639646038e-04
4.391696676564479839e-07,9.164764412908685915e-04
4.467649065708355875e-07,9.282732106429715654e-04
4.544910428612887334e-07,9.402218515835081194e-04
4.623512610913671437e-07,9.523243216010301472e-04
4.703488822623008986e-07,9.645826035527319507e-04
4.784846663750909835e-07,9.769986989586585020e-04
4.867599130574333878e-07,9.895746374368760787e-04
4.951774945486329076e-07,1.002312479186247968e-03
5.037404035243873665e-07,1.015214311221453950e-03
5.124517615329247499e-07,1.028282247743396915e-03
5.213141721191601125e-07,1.041518428496413656e-03
5.303276521923906870e-07,1.054925012311665753e-03
5.394951521211337285e-07,1.068504194195741370e-03
5.488202562040217977e-07,1.082258199133942196e-03
5.583067373276007887e-07,1.096189281111112053e-03
5.679585710608851147e-07,1.110299723515203400e-03
5.777774032753137448e-07,1.124591832721171403e-03
5.877639602191174000e-07,1.139067942353315073e-03
5.979218754885234684e-07,1.153730423891428849e-03
6.082549605292377825e-07,1.168581679685952186e-03
6.187672105653732820e-07,1.183624143365423790e-03
6.294624506117870359e-07,1.198860279221565083e-03
6.403406971859747283e-07,1.214292572334897853e-03
6.514048395342776785e-07,1.229923548153199868e-03
6.626591268397701545e-07,1.245755768429515631e-03
6.741080256304317218e-07,1.261791828361575902e-03
6.857562359087468366e-07,1.278034357061772451e-03
6.976068848140172810e-07,1.294486012696713330e-03
7.096602698258462574e-07,1.311149479163817300e-03
7.219204275720591682e-07,1.328027485757325927e-03
7.343917437148676669e-07,1.345122797749004687e-03
7.470787978870092699e-07,1.362438216384625166e-03
7.599862845608685152e-07,1.379976579117398556e-03
7.731148197713201958e-07,1.397740748216472033e-03
