Pressure [MeV/fm^3],Energy Density [MeV/fm^3]
9.327497351799900222e-10,9.535999602265560801e-06
9.497065807924070633e-10,9.656086241630799127e-06
9.669498055411979244e-10,9.777685169181173875e-06
9.844846243145556707e-10,9.900815431396185157e-06
1.002316453417284130e-09,1.002549631485086064e-05
1.020450925521962353e-09,1.015174734926157760e-05
1.038893905740450768e-09,1.027958831057185647e-05
1.057651508891174179e-09,1.040903922407884752e-05
1.076730118042253101e-09,1.054012036760102067e-05
1.096136404415525876e-09,1.067285227468781384e-05
1.115877348741705529e-09,1.080725573787180751e-05
1.135960264162467549e-09,1.094335181196416735e-05
1.156392820781105747e-09,1.108116181739398189e-05
1.177183071969602744e-09,1.122070734359228614e-05
1.198339482546489557e-09,1.136201025242139819e-05
1.219870958946830731e-09,1.150509268165042580e-05
1.241786881512970279e-09,1.164997704847758684e-05
1.264097139042455399e-09,1.179668605310026517e-05
1.286812165737719843e-09,1.194524268233346081e-05
1.309942980710817358e-09,1.209567021327762217e-05
1.333501230205614658e-09,1.224799221703656844e-05
1.357499232709580022e-09,1.240223256248649653e-05
1.381950027137514502e-09,1.255841542009688229e-05
1.406867424280423931e-09,1.271656526580429763e-05
1.432266061724137511e-09,1.287670688494000570e-05
1.458140403714259135e-09,1.303886533761104337e-05
1.484449351536829176e-09,1.320306593461393302e-05
1.511197853344908759e-09,1.336933439102327390e-05
1.538393525382378906e-09,1.353769675053514384e-05
1.566044256087029407e-09,1.370817938514896384e-05
1.594158226353135192e-09,1.388080899933365843e-05
1.622743931341145827e-09,1.405561263424882401e-05
1.651810203939915198e-09,1.423261767202157949e-05
1.681366239993507001e-09,1.441185184008005629e-05
1.711421625411578987e-09,1.459334321554444764e-05
1.741986365289696371e-09,1.477712022967648111e-05
1.773070915173732746e-09,1.496321167238823600e-05
1.804686214610805621e-09,1.515164669681139986e-05
1.836843723137865259e-09,1.534245482392774352e-05
1.869555458868384605e-09,1.553566594726210715e-05
1.902834039847289989e-09,1.573131033763860203e-05
1.936692728354711520e-09,1.592941864800147828e-05
1.971145478349992938e-09,1.613002191830141226e-05
2.006206986259048253e-09,1.633315158044861985e-05
2.041892745320346365e-09,1.653883946333375941e-05
2.078219103717791809e-09,1.674711779791799673e-05
2.115203326742416381e-09,1.695801922239331271e-05
2.152863663239327907e-09,1.717157678741445642e-05
2.191219416611604040e-09,1.738782396140376005e-05
2.230291020669045344e-09,1.760679463593024530e-05
2.270100120626763400e-09,1.782852313116434621e-05
2.310669659576679960e-09,1.805304420140974576e-05
2.352016690464859219e-09,1.828039302666722250e-05
2.394074110607166795e-09,1.851060506730619576e-05
2.436828484711953711e-09,1.874371633577124834e-05
2.480291697020364375e-09,1.897976334724557780e-05
2.524476049077077714e-09,1.921878307728258801e-05
2.569394290913444216e-09,1.946081296765480413e-05
2.615059654624518812e-09,1.970589093228032832e-05
2.661485890503694027e-09,1.995405536322819836e-05
2.708687305908822481e-09,2.020534513680382130e-05
2.756678807044574569e-09,2.045979961971588828e-05
2.805475943857197607e-09,2.071745867532599712e-05
2.855094958250044904e-09,2.097836266998250377e-05
2.905552835840984267e-09,2.124255247943982589e-05
2.956867361496494810e-09,2.151006949536486546e-05
3.009057178891552129e-09,2.178095563193187178e-05
3.062141854359669176e-09,2.205525333250737792e-05
3.116141945313533541e-09,2.233300557642672863e-05
3.171079073533722987e-09,2.261425588586393762e-05
3.226976003640973526e-09,2.289904833279636178e-05
3.283856727086563158e-09,2.318742754606616756e-05
3.341746552015448828e-09,2.347943871854010387e-05
3.400672199378186291e-09,2.377512761436966892e-05
3.460661905690091171e-09,2.407454057635334432e-05
3.521745532859995068e-09,2.437772453340306521e-05
3.583954685536044366e-09,2.468472700811671509e-05
3.647322836442681662e-09,2.499559612445901048e-05
3.711885460210959729e-09,2.531038061555259121e-05
3.777680176234188403e-09,2.562912983158190854e-05
3.844698248659972815e-09,2.595189364925340581e-05
3.912828356646407712e-09,2.627872236622389674e-05
3.982080305225412899e-09,2.660966716230150100e-05
4.052473193064815126e-09,2.694477988042671211e-05
4.124026794421524233e-09,2.728411301731466544e-05
4.196761609732667042e-09,2.762771973177619334e-05
4.270698920085516717e-09,2.797565385315029231e-05
4.345860845831142874e-09,2.832796988985013649e-05
4.422270409623144617e-09,2.868472303802422675e-05
4.499951604180403777e-09,2.904596919033496221e-05
4.578929465091307113e-09,2.941176494485633853e-05
4.659230148996478847e-09,2.978216761409316823e-05
4.740881017507819653e-09,3.015723523412356812e-05
4.823910727243707524e-09,3.053702657386735640e-05
4.908349326383290110e-09,3.092160114448215194e-05
4.994228358167601966e-09,3.131101920888998424e-05
5.081580971801053974e-09,3.170534179143638290e-05
5.170442041234532088e-09,3.210463068768472459e-05
5.260848292340374075e-09,3.250894847434827032e-05
5.352838439020261613e-09,3.291835851936257307e-05
5.446453328819712209e-09,3.333292499210093905e-05
5.541736098657180979e-09,3.375271287373585649e-05
5.638732341312248535e-09,3.417778796774910920e-05
5.737490283355863278e-09,3.460821691059396305e-05
5.838060975246194490e-09,3.504406718251206805e-05
5.940498494356776008e-09,3.548540711850870822e-05
6.044860161748966326e-09,3.593230591948954337e-05
6.151206773548839110e-09,3.638483366356233924e-05
6.259492881125250462e-09,3.684306108319742565e-05
6.369556966950874972e-09,3.730705955629052303e-05
6.481423935919851303e-09,3.777690176185903104e-05
6.595124354024864417e-09,3.825266130561746355e-05
6.710689865321067501e-09,3.873441272172617868e-05
6.828153272615092349e-09,3.922223148463025664e-05
6.947548624339607989e-09,3.971619402105883953e-05
7.068911308035864587e-09,4.021637772218767743e-05
7.192278150892795198e-09,4.072286095596751673e-05
7.317687527819440801e-09,4.123572307962170539e-05
7.445179477556658489e-09,4.175504445231537315e-05
7.574795827365723167e-09,4.228090644800013047e-05
7.706580326864188591e-09,4.281339146843680038e-05
7.840578791614617280e-09,4.335258295639981500e-05
7.976839257108770435e-09,4.389856540906680074e-05
8.115412143829035826e-09,4.445142439159649608e-05
8.256350434110422574e-09,4.501124655089915592e-05
8.399709861570294794e-09,4.557811962960281709e-05
8.545549113919371260e-09,4.615213248021951781e-05
8.693930050016737171e-09,4.673337507951545554e-05
8.844917932083365812e-09,4.732193854308922368e-05
8.998581674043670311e-09,4.791791514016255176e-05
9.154994107022523214e-09,4.852139830858792678e-05
9.314232263086627908e-09,4.913248267007785941e-05
9.476377678383869315e-09,4.975126404566034851e-05
9.641516716902909108e-09,5.037783947136589071e-05
9.809740916147718603e-09,5.101230721415089342e-05
9.981147356098274908e-09,5.165476678806316991e-05
1.015569236024368935e-08,5.230531864308460971e-05
1.033309866333804729e-08,5.296406397495925122e-05
1.051339855421123777e-08,5.363110595409676241e-05
1.069664077851112923e-08,5.430654908607548801e-05
1.088287578175205557e-08,5.499049919502079669e-05
1.107215583624184305e-08,5.568306344045201073e-05
1.126453517774840744e-08,5.638435033435994551e-05
1.146007015257162982e-08,5.709446975851947690e-05
1.165881937572751721e-08,5.781353298204132429e-05
1.186084390099589171e-08,5.854165267916760297e-05
1.206620740362919894e-08,5.927894294731533354e-05
1.227497637656957792e-08,6.002551932537311246e-05
1.248722034107326156e-08,6.078149881225535525e-05
1.270301207269690397e-08,6.154699988571945191e-05
1.292242784365851718e-08,6.232214252145072697e-05
1.314554768264794655e-08,6.310704821242102522e-05
1.337245565322678795e-08,6.390183998852576785e-05
1.360324015202724505e-08,6.470664243650599799e-05
1.383799422803233143e-08,6.552158172016087718e-05
1.407681592429739831e-08,6.634678560085681962e-05
1.431980864355472900e-08,6.718238345834004032e-05
1.456708153922957509e-08,6.802850631185864306e-05
1.481874993348743920e-08,6.888528684160151211e-05
1.507493576402928381e-08,6.975285941046087911e-05
1.533576806145348239e-08,7.063136008612638458e-05
1.560138345911154914e-08,7.152092666351768174e-05
1.587192673749891247e-08,7.242169868756429658e-05
1.614755140534274238e-08,7.333381747634074043e-05
1.642831435076384841e-08,7.425742589725522471e-05
1.671373621941425514e-08,7.519266736481311844e-05
1.700379772277307764e-08,7.613968818941081003e-05
1.729857637787640159e-08,7.709863675066648916e-05
1.759815235436305802e-08,7.806966330076384338e-05
1.790260867172995865e-08,7.905291998842454060e-05
1.821203141175415509e-08,8.004856088321278919e-05
1.852650994711976987e-08,8.105674200017814210e-05
1.884613718735304987e-08,8.207762132484310426e-05
1.917100984323746835e-08,8.311135883854221134e-05
1.950122871095324327e-08,8.415811654411886806e-05
1.983689897726326180e-08,8.521805849198787434e-05
2.017813054714826657e-08,8.629135080657017161e-05
2.052503839538097630e-08,8.737816171310804926e-05
2.087774294361956884e-08,8.847866156486780423e-05
2.123637046469822409e-08,8.959302287073912373e-05
2.160105351589373434e-08,9.072142032323829268e-05
2.197193140305633752e-08,9.186403082692529522e-05
2.234915067760616664e-08,9.302103352724244061e-05
2.273286566851868811e-08,9.419260983978543656e-05
2.312323905154956300e-08,9.537894348001519089e-05
2.352044245808515557e-08,9.658022049342161698e-05
2.392465712614768445e-08,9.779662928614945845e-05
2.433607459623505531e-08,9.902836065609677181e-05
2.475489745483568153e-08,1.002756078244982914e-04
2.518134012862706318e-08,1.015385664680048844e-04
2.561562973254559520e-08,1.028174347512713754e-04
2.605800697510409005e-08,1.041124133600662504e-04
2.650871959145241115e-08,1.054237055166696728e-04
2.696731991056346396e-08,1.067515153112852150e-04
2.743350038118909453e-08,1.080960497604878205e-04
2.790738024174429342e-08,1.094575195316893900e-04
2.838908153228095979e-08,1.108361379485142998e-04
2.887872926830644061e-08,1.122321210245960443e-04
2.937645162839117077e-08,1.136456874978277782e-04
2.988238015655060581e-08,1.150770588650755570e-04
3.039664998044969053e-08,1.165264594173614284e-04
3.091940004654559426e-08,1.179941162755253635e-04
3.145077337335543259e-08,1.194802594263735324e-04
3.199091732411158710e-08,1.209851217593226980e-04
3.253998390014654204e-08,1.225089391035485737e-04
3.309813005643504388e-08,1.240519502656487708e-04
3.366551804080962757e-08,1.256143970678281823e-04
3.424231575846225328e-08,1.271965243866184038e-04
3.482869716344410592e-08,1.287985801921401633e-04
3.542484267898307678e-08,1.304208155879198064e-04
3.603093964855098963e-08,1.320634848512703785e-04
3.664718281973207842e-08,1.337268454742494492e-04
3.727377486307077582e-08,1.354111582052037338e-04
3.791092692821070957e-08,1.371166870909145796e-04
3.855885923977823173e-08,1.388436995193547253e-04
3.921780173561415424e-08,1.405924662630713231e-04
3.988799475011495863e-08,1.423632615232066877e-04
4.056968974561386969e-08,1.441563629741724405e-04
4.126315009490798882e-08,1.459720518089903840e-04
4.196865191822674945e-08,1.478106127853153927e-04
4.268648497813422328e-08,1.496723342721561513e-04
4.340802971346340194e-08,1.515575077913243690e-04
4.363188897663447461e-08,1.534664216673370038e-04
4.350431342016576432e-08,1.553993760396759542e-04
4.356230225959108754e-08,1.573566788216224912e-04
4.385233147849890175e-08,1.593386348553018446e-04
4.429979772156345011e-08,1.613455536087084847e-04
4.489351382119501962e-08,1.633777498701207819e-04
4.561997437412990582e-08,1.654355424455827188e-04
4.646313973007322029e-08,1.675192542140605076e-04
4.740420435334705098e-08,1.696292121836115809e-04
4.842134856004979946e-08,1.717657475486011388e-04
4.948947257399679898e-08,1.739291957479981816e-04
5.057991178211799161e-08,1.761198965247890845e-04
5.166013200384440768e-08,1.783381939865455218e-04
5.269340351912980434e-08,1.805844366671862603e-04
5.364049357501528198e-08,1.828589775204531899e-04
5.455838690670067630e-08,1.851621707449211318e-04
5.549147451758518925e-08,1.874943758288557117e-04
5.644006128274713249e-08,1.898559583965943765e-04
5.740446563520181437e-08,1.922472887012748185e-04
5.838502055374964492e-08,1.946687416851866832e-04
5.938207462167265739e-08,1.971206970410295880e-04
6.039599316090888499e-08,1.996035392741002488e-04
6.142715944661391642e-08,2.021176577654283906e-04
6.247597600731810198e-08,2.046634468358869783e-04
6.354286601619982831e-08,2.072413058112963335e-04
6.462827477933050647e-08,2.098516390885504660e-04
6.573267132709664336e-08,2.124948562027885208e-04
6.685612752563654984e-08,2.151713708076617606e-04
6.799817588451441724e-08,2.178816003819179109e-04
6.915915659560854218e-08,2.206259697629692370e-04
7.033945399195224521e-08,2.234049092414506219e-04
7.153946968442310586e-08,2.262188545592453152e-04
7.275962381738268464e-08,2.290682469808557123e-04
7.400035641402809845e-08,2.319535333658679038e-04
7.526212881730148562e-08,2.348751662425335501e-04
7.654542523255940194e-08,2.378336038824989764e-04
7.785075437857692333e-08,2.408293103767078632e-04
7.917865125386036852e-08,2.438627557125082411e-04
8.052967902565916316e-08,2.469344158519932802e-04
8.190430190820201063e-08,2.500447724718863631e-04
8.330187321913651876e-08,2.531943103769195751e-04
8.472255603660499313e-08,2.563835226287773878e-04
8.616681597018013974e-08,2.596129092885934159e-04
8.763513943825426941e-08,2.628829767539179628e-04
8.912803518285566973e-08,2.661942378417981019e-04
9.064603589292564010e-08,2.695472118731392312e-04
9.218969994313378529e-08,2.729424247583772103e-04
9.375961325573970745e-08,2.763804090844964277e-04
9.535639129346213419e-08,2.798617042034240443e-04
9.698068119179875995e-08,2.833868563218396638e-04
9.863316403974611430e-08,2.869564185924326294e-04
1.003145573184082376e-07,2.905709512066492859e-04
1.020246132000436267e-07,2.942310188268335881e-04
1.037629064516735071e-07,2.979371927707360774e-04
1.055299982116830613e-07,3.016900541833656595e-04
1.073264742937383238e-07,3.054901915750786673e-04
1.091529468527579775e-07,3.093382009179538087e-04
1.110100562950136122e-07,3.132346857439782199e-04
1.128984733244918550e-07,3.171802572447667977e-04
1.148189011343920363e-07,3.211755343728586666e-04
1.167720777531689876e-07,3.252211439446269382e-04
1.187587785551004879e-07,3.293177207448465954e-04
1.207798189459591181e-07,3.334659076329613762e-04
1.228360572350059797e-07,3.376663556510984448e-04
1.249280026245875892e-07,3.419197230723263425e-04
1.270546403581922467e-07,3.462266723491422239e-04
1.292164265305567888e-07,3.505878782656843772e-04
1.314140698781697462e-07,3.550040247672280546e-04
1.336483107565638922e-07,3.594758044729696816e-04
1.359199234362726582e-07,3.640039187903665470e-04
1.382297185629604343e-07,3.685890780312803890e-04
1.405785457924333043e-07,3.732320015299709541e-04
1.429672966118869403e-07,3.779334177629878875e-04
1.453969073594345087e-07,3.826940644710109872e-04
1.478683624546835015e-07,3.875146887826890776e-04
1.503826978539010246e-07,3.923960473405357224e-04
1.529409796837128944e-07,3.973389063612959757e-04
1.555424473969748659e-07,4.023440367439314199e-04
1.581868367749386905e-07,4.074122204607986053e-04
1.608750030304061805e-07,4.125442523616811258e-04
1.636078389035116347e-07,4.177409373777220963e-04
1.663862773826396338e-07,4.230030906544271366e-04
1.692112946203675129e-07,4.283315376867710862e-04
1.720839130571790084e-07,4.337271144564706308e-04
1.750052047664639905e-07,4.391906675714710856e-04
1.779762950351442074e-07,4.447230544077143406e-04
1.809983661951244368e-07,4.503251432532427191e-04
1.840726617216911271e-07,4.559978134547088978e-04
1.872004906159413549e-07,4.617419555663536336e-04
1.903823643904451978e-07,4.675584691386262468e-04
1.936168298461416512e-07,4.734482596922106722e-04
1.969047367152045482e-07,4.794122504848571638e-04
2.002471614528782435e-07,4.854513769903068352e-04
2.036452282761240071e-07,4.915665865566735959e-04
2.071001126203887459e-07,4.977588385638377806e-04
2.106130448433049258e-07,5.040291045833819074e-04
2.141853141914186292e-07,5.103783685411352432e-04
2.178182730470230172e-07,5.168076268824010108e-04
2.215133414732020226e-07,5.233178887399346502e-04
2.252720120762870407e-07,5.299101761047572690e-04
2.290958552060798129e-07,5.365855239998790910e-04
2.329864133868433172e-07,5.433449803507076981e-04
2.369422525819022042e-07,5.501895980204767533e-04
2.409633109185087618e-07,5.571204469621868043e-04
2.450508893342414603e-07,5.641386143606945316e-04
2.492063459037050852e-07,5.712452012035094300e-04
2.534310999774852093e-07,5.784413224640059777e-04
2.577266366175226389e-07,5.857281072876174702e-04
2.620945113482633584e-07,5.931066991810863285e-04
2.665363552441222169e-07,6.005782562048591353e-04
2.710538803750352471e-07,6.081439511687123777e-04
2.756488856331976684e-07,6.158049718307032202e-04
2.803232629654669326e-07,6.235625210995356235e-04
2.850790040373893007e-07,6.314178172404492527e-04
2.899168021465682363e-07,6.393720899952653938e-04
2.948350334843206212e-07,6.474265779422666263e-04
2.998349902779092349e-07,6.555825439312322348e-04
3.049181548242838994e-07,6.638412672381822964e-04
3.100860594374655085e-07,6.722040433563852444e-04
3.153402897476330018e-07,6.806721842096593580e-04
3.206824882383279225e-07,6.892470183690129447e-04
3.261143580376299476e-07,6.979298912727197090e-04
3.316376669801233970e-07,7.067221654499055263e-04
3.372542519575200780e-07,7.156252207477490799e-04
3.429660235768883913e-07,7.246404545623837470e-04
3.487749711466031377e-07,7.337692820736094797e-04
3.547443907646358605e-07,7.430131372442168010e-04
3.576356085655302503e-07,7.523734337312129204e-04
3.559532678734455524e-07,7.618516017756645853e-04
3.579116588143152798e-07,7.714491158128359985e-04
3.639819278886257156e-07,7.811675326338544858e-04
3.701469139593013819e-07,7.910084031880517926e-04
3.764159449287020467e-07,8.009732573499283312e-04
3.827908127999462626e-07,8.110636784047663876e-04
3.885363623599399760e-07,8.212812111948780865e-04
3.884047415772378158e-07,8.316274311021445813e-04
3.900288339092667949e-07,8.421039928645775250e-04
3.948431904613541616e-07,8.527125295793938371e-04
4.017495920862015470e-07,8.634547078845888814e-04
4.099421771089266760e-07,8.743322221298775515e-04
4.185006940533694002e-07,8.853467893163877124e-04
4.263807058616000083e-07,8.965001494872738494e-04
4.336000249234094309e-07,9.077940486954517128e-04
4.409398023576165687e-07,9.192302464728262451e-04
4.484027657059198950e-07,9.308105375204146943e-04
4.559917829479431068e-07,9.425367393658970689e-04
4.637098728067328932e-07,9.544106926693500916e-04
4.715600454940986966e-07,9.664342610745934323e-04
4.795425393568388507e-07,9.786093244016269479e-04
4.876590042421121396e-07,9.909377907732850720e-04
4.959121468155789090e-07,1.003421595312914850e-03
5.043047851091886641e-07,1.016062697797376390e-03
5.128398561527697362e-07,1.028863082990446633e-03
5.215197113166341882e-07,1.041824758785697691e-03
5.303443184100187551e-07,1.054949750552621910e-03
5.393165020030616051e-07,1.068240117386113014e-03
5.484396220965269861e-07,1.081697945764143387e-03
5.577172115697487064e-07,1.095325348779468706e-03
5.671529888191528372e-07,1.109124466502073260e-03
5.767488623545225968e-07,1.123097460962283302e-03
5.865051239164861212e-07,1.137246517097996977e-03
5.964251232188396356e-07,1.151573855616333563e-03
6.065124123186806457e-07,1.166081725624499741e-03
6.167707102538623566e-07,1.180772404885820255e-03
6.272038530282465424e-07,1.195648200030619132e-03
6.378123641047412530e-07,1.210711437189471639e-03
6.485980746424302587e-07,1.225964475695724741e-03
6.595649226175662412e-07,1.241409710593263877e-03
6.707170419514434955e-07,1.257049567521032439e-03
