Pressure [MeV/fm^3],Energy Density [MeV/fm^3]
9.324122588225059431e-10,9.546872910769889644e-06
9.494626458056017890e-10,9.665633045045150836e-06
9.667947793678335467e-10,9.785870547124262881e-06
9.844125337285040124e-10,9.907603794981466197e-06
1.002319846951916021e-09,1.003085139523705058e-05
1.020520725331284730e-09,1.015563218600833934e-05
1.039019248187698940e-09,1.028196523979681807e-05
1.057819573116139832e-09,1.040986986641188736e-05
1.076925941712692793e-09,1.053936561593174105e-05
1.096342685819347655e-09,1.067047228170190516e-05
1.116074234325175923e-09,1.080320990337194254e-05
1.136125120565213402e-09,1.093759876997088037e-05
1.156499990361067072e-09,1.107365942302191808e-05
1.177203610750117552e-09,1.121141265969691351e-05
1.198240879453220361e-09,1.135087953601131161e-05
1.219616835133999162e-09,1.149208137006003899e-05
1.241336668506230545e-09,1.163503974529493693e-05
1.263405734349417908e-09,1.177977651384442249e-05
1.285829564496449170e-09,1.192631379987592803e-05
1.308613881861276742e-09,1.207467400300175465e-05
1.331764615578836325e-09,1.222487980172906449e-05
1.355287917333918117e-09,1.237695415695455740e-05
1.379190178960528081e-09,1.253092031550462312e-05
1.403478051398311598e-09,1.268680181372158391e-05
1.428158465097990757e-09,1.284462248109678150e-05
1.453238651973446169e-09,1.300440644395122830e-05
1.478726169004060294e-09,1.316617812916453446e-05
1.504628923597312274e-09,1.332996226795295599e-05
1.530955200828317133e-09,1.349578389969724339e-05
1.557713692680118629e-09,1.366366837582116656e-05
1.584913529416061430e-09,1.383364136372155625e-05
1.612564313223505922e-09,1.400572885075061249e-05
1.640676154276567584e-09,1.417995714825144402e-05
1.669259709374432702e-09,1.435635289564771445e-05
1.698326223321204587e-09,1.453494306458826258e-05
1.727887573223158936e-09,1.471575496314768442e-05
1.757956315889772357e-09,1.489881624008385967e-05
1.788545738535988790e-09,1.508415488915337446e-05
1.819669912994889294e-09,1.527179925348589091e-05
1.851343753662335643e-09,1.546177803001855770e-05
1.883583079408199310e-09,1.565412027399146639e-05
1.916404679702649128e-09,1.584885540350539502e-05
1.949826385220530076e-09,1.604601320414283878e-05
1.983867143202311221e-09,1.624562383365374543e-05
2.018547097866334066e-09,1.644771782670696012e-05
2.053887676184308719e-09,1.665232609970877570e-05
2.089911679350165165e-09,1.685947995568992647e-05
2.126643380291515169e-09,1.706921108926230649e-05
2.164108627593247059e-09,1.728155159164686223e-05
2.202334956224133454e-09,1.749653395577412685e-05
2.241351705479895827e-09,1.771419108145887321e-05
2.281190144579976072e-09,1.793455628065043406e-05
2.321883606380419769e-09,1.815766328276035969e-05
2.363467629691762205e-09,1.838354624006901229e-05
2.405966785982644002e-09,1.861223970809226043e-05
2.449222802112838083e-09,1.884377832713306946e-05
2.493186040725097312e-09,1.907819737757069422e-05
2.537866018065793335e-09,1.931553269143569096e-05
2.583272390729479840e-09,1.955582054654935912e-05
2.629414965038633069e-09,1.979909767208509877e-05
2.676303707350252366e-09,2.004540125420053258e-05
2.723948755362341322e-09,2.029476894174146972e-05
2.772360430498200731e-09,2.054723885201875869e-05
2.821549251451651735e-09,2.080284957665900472e-05
2.871525948981848882e-09,2.106164018753026661e-05
2.922301482052198814e-09,2.132365024274386793e-05
2.973887055414110776e-09,2.158891979273331867e-05
3.026294138742891991e-09,2.185748938641162475e-05
3.079534487440101368e-09,2.212940007740806279e-05
3.133620165224049718e-09,2.240469343038562622e-05
3.188563568638020631e-09,2.268341152744038973e-05
3.244377453614070313e-09,2.296559697458405570e-05
3.301074964239077534e-09,2.325129290831089556e-05
3.358669663879068527e-09,2.354054300225043132e-05
3.417175568827693472e-09,2.383339147390724962e-05
3.476607184655235488e-09,2.412988309148925614e-05
3.536979545445569792e-09,2.443006318082579354e-05
3.598308256120263874e-09,2.473397763237710672e-05
3.660609538061424744e-09,2.504167290833663617e-05
3.723900278257999340e-09,2.535319604982758608e-05
3.788198082214233807e-09,2.566859468419547483e-05
3.853521330873622747e-09,2.598791703239817895e-05
3.919889241827323162e-09,2.631121191649512400e-05
3.987321935092453849e-09,2.663852876723738422e-05
4.055840503763151987e-09,2.696991763176042893e-05
4.125467089855646939e-09,2.730542918138125397e-05
4.196224965688182322e-09,2.764511471950186654e-05
4.268138621157154293e-09,2.798902618962096668e-05
4.341233857292670674e-09,2.833721618345576331e-05
4.415537886499787455e-09,2.868973794917609334e-05
4.491079439915992522e-09,2.904664539975279196e-05
4.567888882341304538e-09,2.940799312142259431e-05
4.645998335224531157e-09,2.977383638227174375e-05
4.725441808217991745e-09,3.014423114094064453e-05
4.806255339843397990e-09,3.051923405545190344e-05
4.888477147843722515e-09,3.089890249216436933e-05
4.972147789829704934e-09,3.128329453485549465e-05
5.057310334865627121e-09,3.167246899393488558e-05
5.144010546676687400e-09,3.206648541579169679e-05
5.232297079200369501e-09,3.246540409227858837e-05
5.322221685246418977e-09,3.286928607033544304e-05
5.413839439074550308e-09,3.327819316175560188e-05
5.507208973746206916e-09,3.369218795309804039e-05
5.602392734156280748e-09,3.411133381574852068e-05
5.699457246703278736e-09,3.453569491613334516e-05
5.798473406611783246e-09,3.496533622608904556e-05
5.899516783979556870e-09,3.540032353339186310e-05
6.002667949683366926e-09,3.584072345245063816e-05
6.108012822342809207e-09,3.628660343516729734e-05
6.215643037610114479e-09,3.673803178196880707e-05
6.325595954086413783e-09,3.719507752726665547e-05
6.437442418409156401e-09,3.765780959250042935e-05
6.551097261183387379e-09,3.812629848548193025e-05
6.666584633201824759e-09,3.860061582114320775e-05
6.783929040859916726e-09,3.908083410542486475e-05
6.903155369999384811e-09,3.956702674640385451e-05
7.024288912104128949e-09,4.005926806556439244e-05
7.147355393033413950e-09,4.055763330921382571e-05
7.272381004489954950e-09,4.106219866004602890e-05
7.399392438433377137e-09,4.157304124885410104e-05
7.528416924663826142e-09,4.209023916639513557e-05
7.659482271815078782e-09,4.261387147540887925e-05
7.792616912012435313e-09,4.314401822279310576e-05
7.927849949467203933e-09,4.368076045193795354e-05
8.065211213297342844e-09,4.422418021522165406e-05
8.204731314882608826e-09,4.477436058667049628e-05
8.346441710082296968e-09,4.533138567478543302e-05
8.490374766664815490e-09,4.589534063553808713e-05
8.636563837320590716e-09,4.646631168553909841e-05
8.785043338653434833e-09,4.704438611538148783e-05
8.935848836570470007e-09,4.762965230316215616e-05
9.089017138517258268e-09,4.822219972818428174e-05
9.244586393032821392e-09,4.882211898484417498e-05
9.402596197128867887e-09,4.942950179670532702e-05
9.563087712029063126e-09,5.004444103076327133e-05
9.726103787837373383e-09,5.066703071190462580e-05
9.891689097739764042e-09,5.129736603756355459e-05
1.005989028238076694e-08,5.193554339257982377e-05
1.023075610509582542e-08,5.258166036426152720e-05
1.040433761872206036e-08,5.323581575765689412e-05
1.058068834475417739e-08,5.389810961103887806e-05
1.075986446565883244e-08,5.456864321160657277e-05
1.094192503121022817e-08,5.524751911140813731e-05
1.112693217976167557e-08,5.593484114348894388e-05
1.131495137542322667e-08,5.663071443827030836e-05
1.150605166217354066e-08,5.733524544016269981e-05
1.170030593599601054e-08,5.804854192441909411e-05
1.189779123619408313e-08,5.877071301423280149e-05
1.209858905710973337e-08,5.950186919808557549e-05
1.230278568154168522e-08,6.024212234735112594e-05
1.251047253723684976e-08,6.099158573415971475e-05
1.272174657790975792e-08,6.175037404952988542e-05
1.293671069033037848e-08,6.251860342177294400e-05
1.315547412911162070e-08,6.329639143517717102e-05
1.337815298092325785e-08,6.408385714897763929e-05
1.360487065996037394e-08,6.488112111661882737e-05
1.383575843660110398e-08,6.568830540531719105e-05
1.407095600130122122e-08,6.650553361593064539e-05
1.431061206589225332e-08,6.733293090314315655e-05
1.455488500457555621e-08,6.817062399597197868e-05
1.480394353703739568e-08,6.901874121860620940e-05
1.505796745625042018e-08,6.987741251158495807e-05
1.531714840367469538e-08,7.074676945332466777e-05
1.558169069472765252e-08,7.162694528200429190e-05
1.585181219755727109e-08,7.251807491781912644e-05
1.612774526832639120e-08,7.342029498561244614e-05
1.640954355877346332e-08,7.433374327684375428e-05
1.669644526000721441e-08,7.525855696984452977e-05
1.698840645863645150e-08,7.619487710334597657e-05
1.728550372438684851e-08,7.714284682496448154e-05
1.758781393933057230e-08,7.810261106300216496e-05
1.789541424427514548e-08,7.907431654866196619e-05
1.820838198125659289e-08,8.005811183854735953e-05
1.852679463192853482e-08,8.105414733745025101e-05
1.885072975162904642e-08,8.206257532143228738e-05
1.918026489889613782e-08,8.308354996120301966e-05
1.951547756019200226e-08,8.411722734580023386e-05
1.985644506958407309e-08,8.516376550657629772e-05
2.020324452311918445e-08,8.622332444149594457e-05
2.055595268761397821e-08,8.729606613974973616e-05
2.091464590357163714e-08,8.838215460668857133e-05
2.127939998192077321e-08,8.948175588908399746e-05
2.165029009425788769e-08,9.059503810071990824e-05
2.202739065625914228e-08,9.172217144832061524e-05
2.241077520391150132e-08,9.286332825782091748e-05
2.280051626219619808e-08,9.401868300098411852e-05
2.319668520583985353e-08,9.518841232237311412e-05
2.359935211173031758e-08,9.637269506668134000e-05
2.400858560257491105e-08,9.757171230642913652e-05
2.442445268135826521e-08,9.878564737003196750e-05
2.484701855613628969e-08,1.000146858702474594e-04
2.527634645468006506e-08,1.012590157330071694e-04
2.571249742846062329e-08,1.025188272266406995e-04
2.615553014544122007e-08,1.037943129914991491e-04
2.660550067111797128e-08,1.050856680699849266e-04
2.706246223722344139e-08,1.063930899369959840e-04
2.752646499747965060e-08,1.077167785307920765e-04
2.799755576975773846e-08,1.090569362842911804e-04
2.847577776397107804e-08,1.104137681568045779e-04
2.896117029499644742e-08,1.117874816662192309e-04
2.945376847988434151e-08,1.131782869216363857e-04
2.995360291858456351e-08,1.145863966564757217e-04
3.046069935737614145e-08,1.160120262620548137e-04
3.097507833415240275e-08,1.174553938216536255e-04
3.149675480467169970e-08,1.189167201450748234e-04
3.202573774884168243e-08,1.203962288037100048e-04
3.256202975606145982e-08,1.218941461661237285e-04
3.310562658859902474e-08,1.234107014341661614e-04
3.365651672193338680e-08,1.249461266796270673e-04
3.421468086093981498e-08,1.265006568814430504e-04
3.478009143074346823e-08,1.280745299634711862e-04
3.535271204101115138e-08,1.296679868328429034e-04
3.593249692239264109e-08,1.312812714189116707e-04
3.651939033376174197e-08,1.329146307128087031e-04
3.711332593884397725e-08,1.345683148076236030e-04
3.771422615075003564e-08,1.362425769392235423e-04
3.832200144286463939e-08,1.379376735277289278e-04
3.893654962446714412e-08,1.396538642196626021e-04
3.955775507938272401e-08,1.413914119307895976e-04
4.018548796588329519e-08,1.431505828896676412e-04
4.081960337597248791e-08,1.449316466819262959e-04
4.145994045210099282e-08,1.467348762952964795e-04
4.210501970353523775e-08,1.485605460823438684e-04
4.275080303159676104e-08,1.504089291177973346e-04
4.339735118258662474e-08,1.522803077187995235e-04
4.404511389960750271e-08,1.541749682220876607e-04
4.469463235173150935e-08,1.560932005671465477e-04
4.534654784690765275e-08,1.580352983446419606e-04
4.600161117975156397e-08,1.600015588457128987e-04
4.666069265470348680e-08,1.619922831121479729e-04
4.732479282743217650e-08,1.640077759874751810e-04
4.799505400988828709e-08,1.660483461689939893e-04
4.867277258707904058e-08,1.681143062607802149e-04
4.935941219645359333e-08,1.702059728276961810e-04
5.005661782376482961e-08,1.723236664504401326e-04
5.076623087241480564e-08,1.744677117816698271e-04
5.149030526660993429e-08,1.766384376032381360e-04
5.223112465215393250e-08,1.788361768845791479e-04
5.299122076240577150e-08,1.810612668422862163e-04
5.377339302083261390e-08,1.833140490009243985e-04
5.458071751573258991e-08,1.855948692435553616e-04
5.541110716829258564e-08,1.879040728433185306e-04
5.626147042061787487e-08,1.902420092755222167e-04
5.713228249466333911e-08,1.926090360690413611e-04
5.802401769578873548e-08,1.950055152076888426e-04
5.893714815223044324e-08,1.974318131864272673e-04
5.987214243618327628e-08,1.998883010683468017e-04
6.082946405819194164e-08,2.023753545424200259e-04
6.180956982603967954e-08,2.048933539820502333e-04
6.281290805877678600e-08,2.074426845044266478e-04
6.383991664595781515e-08,2.100237360307029570e-04
6.489102094154753208e-08,2.126369033470144757e-04
6.596663148131291564e-08,2.152825861663506092e-04
6.706714151183920257e-08,2.179611891912994768e-04
6.819292431858815913e-08,2.206731221776825824e-04
6.934433033965796993e-08,2.234187999990972081e-04
7.052168405110059076e-08,2.261986427123861788e-04
7.172528060880334129e-08,2.290130756240539188e-04
7.295538223104506103e-08,2.318625293576495085e-04
7.421221430488847552e-08,2.347474399221370698e-04
7.549596119857025874e-08,2.376682487812773056e-04
7.680676176098988536e-08,2.406254029240399521e-04
7.814470448828341946e-08,2.436193549360730860e-04
7.950982233628530645e-08,2.466505630722533250e-04
8.090208715643527582e-08,2.497194913303411304e-04
8.232140373137052470e-08,2.528266095257699665e-04
8.376760338505191530e-08,2.559723933675941759e-04
8.524043714080490531e-08,2.591573245356275238e-04
8.673956839910476150e-08,2.623818907587988688e-04
8.826456510529884811e-08,2.656465858947590570e-04
8.981489137573060919e-08,2.689519100107697763e-04
9.138989854890485227e-08,2.722983694659090125e-04
9.298881562640901873e-08,2.756864769946279080e-04
9.461073906627235292e-08,2.791167517916966472e-04
9.625462188929994321e-08,2.825897195985772057e-04
9.791926205665460833e-08,2.861059127912630247e-04
9.960329007457231917e-08,2.896658704696286005e-04
1.013051557795746471e-07,2.932701385483313253e-04
1.030268597723836604e-07,2.969192653962175158e-04
1.047758866282118798e-07,3.006138001921864139e-04
1.065529123699639534e-07,3.043543076300424862e-04
1.083583576047164033e-07,3.081413597665368228e-04
1.101926530107470991e-07,3.119755357874696555e-04
1.120562400126546372e-07,3.158574220978431772e-04
1.139495715107661382e-07,3.197876124132558828e-04
1.158731126686795763e-07,3.237667078525669970e-04
1.178273417630308698e-07,3.277953170318525676e-04
1.198127510998335653e-07,3.318740561596802735e-04
1.218298480020151485e-07,3.360035491337294024e-04
1.238791558730627199e-07,3.401844276387826151e-04
1.259612153419994103e-07,3.444173312461192580e-04
1.280765854952378430e-07,3.487029075143389554e-04
1.302258452012013057e-07,3.530418120916464352e-04
1.324095945339682882e-07,3.574347088196292463e-04
1.346284563025815755e-07,3.618822698385610573e-04
1.368830776930717491e-07,3.663851756942664776e-04
1.391741320306754323e-07,3.709441154465802516e-04
1.415023206701880204e-07,3.755597867794411584e-04
1.438683750228705103e-07,3.802328961126560177e-04
1.462730587288444028e-07,3.849641587153767338e-04
1.487171699844462802e-07,3.897542988213304415e-04
1.512015440345864396e-07,3.946040497458461194e-04
1.537270558407602961e-07,3.995141540047251073e-04
1.562946229359984485e-07,4.044853634350000318e-04
1.589052084787177094e-07,4.095184393176329362e-04
1.615598245181479166e-07,4.146141525022046560e-04
1.642595354847639938e-07,4.197732835336473738e-04
1.670054619199482270e-07,4.249966227810770560e-04
1.697987844599516302e-07,4.302849705687861095e-04
1.726407480901096443e-07,4.356391373094527426e-04
1.755326666862108186e-07,4.410599436396367467e-04
1.784759278609056953e-07,4.465482205576235507e-04
1.814719981340942802e-07,4.521048095636882695e-04
1.845224284473372705e-07,4.577305628028541218e-04
1.876288600435033612e-07,4.634263432102173714e-04
1.907916068536411332e-07,4.691930208187381369e-04
1.940049903700380551e-07,4.750314603206748061e-04
1.972689780034131895e-07,4.809425525966458414e-04
2.005845233281953125e-07,4.869272022719178653e-04
2.039526249319950759e-07,4.929863253152551479e-04
2.073743299095732711e-07,4.991208491880340511e-04
2.108507376119240623e-07,5.053317129957903692e-04
2.143830036671413926e-07,5.116198676422660258e-04
2.179723442907443421e-07,5.179862759860256018e-04
2.216200409041995001e-07,5.244319129997170688e-04
2.253274450815012351e-07,5.309577659320501844e-04
2.290959838448612805e-07,5.375648344725771164e-04
2.329271653318133729e-07,5.442541309193556351e-04
2.368225848573646073e-07,5.510266803495842119e-04
2.407839313962301362e-07,5.578835207933010741e-04
2.448129945116658041e-07,5.648257034102421902e-04
2.489116717589828633e-07,5.718542926699611865e-04
2.530819765934781955e-07,5.789703665353146270e-04
2.573260468142627701e-07,5.861750166494242211e-04
2.616541924990140852e-07,5.934693400592564762e-04
2.660763510876606135e-07,6.008544424400677139e-04
2.705883376701707132e-07,6.083314540499584798e-04
2.751850977365429719e-07,6.159015193730842238e-04
2.798607255531017170e-07,6.235657972243506325e-04
2.846083912516484515e-07,6.313254609355996565e-04
2.894202628976914511e-07,6.391816985446782153e-04
2.942874232279283531e-07,6.471357129874618936e-04
2.991997807292344624e-07,6.551887222929144057e-04
3.041459747124751867e-07,6.633419597812540563e-04
3.091132740144938037e-07,6.715966742653137200e-04
3.140874689405406753e-07,6.799541302551796642e-04
3.190431626122638549e-07,6.884155976180873424e-04
3.239632245542894065e-07,6.969823590315024067e-04
3.288487955061389852e-07,7.056557253873945931e-04
3.337016962665135054e-07,7.144370240426004340e-04
3.385244664257984770e-07,7.233275990104070944e-04
3.433204384425166208e-07,7.323288111810168609e-04
3.480938172672473830e-07,7.414420385457203607e-04
3.528497658724685866e-07,7.506686764248921354e-04
3.575944970681035884e-07,7.600101376999178569e-04
3.623353720050960094e-07,7.694678530491716895e-04
3.670810057931445737e-07,7.790432711881729259e-04
3.718413806838806932e-07,7.887378591140447367e-04
3.766279672973423287e-07,7.985531023544182585e-04
3.814538543976563679e-07,8.084905052209199290e-04
3.863338877534782748e-07,8.185515910673942918e-04
3.912848186500342076e-07,8.287379025530191559e-04
3.963254626526532907e-07,8.390510019104779069e-04
4.014768692565739463e-07,8.494924712193594081e-04
4.067625030946395185e-07,8.600639126849719731e-04
4.122084374133909405e-07,8.707669489227551829e-04
4.178435605691120517e-07,8.816032232484945696e-04
4.236997963387130339e-07,8.925743999745479849e-04
4.298080466107597385e-07,9.036821625685678185e-04
4.361120884983990130e-07,9.149281734064253603e-04
4.425861327408554011e-07,9.263141368224219038e-04
4.492343493544256967e-07,9.378417944079710678e-04
4.560608612064341272e-07,9.495129094895075894e-04
4.630697280923681978e-07,9.613292674070929127e-04
4.702649293816895266e-07,9.732926757971669838e-04
4.776503451331181889e-07,9.854049648795370001e-04
4.852297355740849473e-07,9.976679877487090384e-04
4.930067188325729283e-07,1.010083620669667949e-03
5.009847468027346999e-07,1.022653763378216646e-03
5.091670790184312694e-07,1.035380339385986352e-03
5.175567544012011403e-07,1.048265296290243473e-03
5.261565607410741116e-07,1.061310606088615915e-03
5.349690017600986285e-07,1.074518265498869418e-03
5.439962615994201135e-07,1.087890296283871129e-03
5.532401665611932778e-07,1.101428745581884642e-03
5.627021439265252632e-07,1.115135686242346106e-03
5.723831776599758632e-07,1.129013217167276024e-03
5.822837607998788126e-07,1.143063463658490009e-03
5.924038443218434084e-07,1.157288577770785015e-03
6.027427822502162221e-07,1.171690738671271473e-03
6.132992727790026744e-07,1.186272153005046284e-03
