Pressure [MeV/fm^3],Energy Density [MeV/fm^3]
2.133149061984330366e-08,9.516424119680808990e-05
2.165302702515383855e-08,9.622340657346439277e-05
2.197931163876482137e-08,9.729436242285775045e-05
2.231083857194914265e-08,9.837728128820419241e-05
2.264729179271676862e-08,9.947227054385701021e-05
2.298769802602044529e-08,1.005794130062628839e-04
2.333263574824147034e-08,1.016988610558920480e-04
2.368378905198295900e-08,1.028307873369317655e-04
2.404088125175015474e-08,1.039753206048313453e-04
2.440297258658131868e-08,1.051325584821718811e-04
2.477023539694852250e-08,1.063026478598411183e-04
2.514325307667437212e-08,1.074857824794320162e-04
2.552210702751575233e-08,1.086821064929274734e-04
2.590580742280301564e-08,1.098917923997689108e-04
2.629425432615759873e-08,1.111150009209095304e-04
2.668842606703927688e-08,1.123517745382040904e-04
2.708838156159048035e-08,1.136022361104226368e-04
2.749501791923983371e-08,1.148666259949107280e-04
2.790900741102093859e-08,1.161451226865128249e-04
2.832867246309594735e-08,1.174378521211284266e-04
2.875301748031975533e-08,1.187449657105739268e-04
2.918399706377787269e-08,1.200666250054551040e-04
2.962303359721009260e-08,1.214029836004127484e-04
3.006847389137272343e-08,1.227542279554920586e-04
3.051904723633685847e-08,1.241205535980227268e-04
3.097585950861917445e-08,1.255020900025497030e-04
3.143949180746901320e-08,1.268989630619408407e-04
3.191031633714296295e-08,1.283113723176524149e-04
3.238964919229212082e-08,1.297395228424296420e-04
3.287657468750259029e-08,1.311835717783798997e-04
3.336918515677648975e-08,1.326436633455135795e-04
3.386827164926618558e-08,1.341199980168866974e-04
3.437484908885156904e-08,1.356128199408781489e-04
3.488902667358848288e-08,1.371222948936157583e-04
3.541227252219231176e-08,1.386485643421529561e-04
3.594438518257188467e-08,1.401918166632099168e-04
3.648290022890828270e-08,1.417521872302973543e-04
3.702801222539232691e-08,1.433298682305957723e-04
3.758261948887680560e-08,1.449251764656485299e-04
3.814707743395981295e-08,1.465383185563354294e-04
3.871878146859559073e-08,1.481693816245753623e-04
3.929735235925574086e-08,1.498185457342363330e-04
3.988443068658828378e-08,1.514860861732559151e-04
4.048032932394739813e-08,1.531722286564950273e-04
4.108527444172272052e-08,1.548771297455695548e-04
4.169958692768320576e-08,1.566009763168785371e-04
4.232290521294626738e-08,1.583440182779940141e-04
4.295504748243374444e-08,1.601064889448001495e-04
4.359647129876873349e-08,1.618885853072263032e-04
4.424713670128778918e-08,1.636905197547097301e-04
4.490807699215227506e-08,1.655125091063784843e-04
4.558102981906709800e-08,1.673547668166703120e-04
4.626424095509760948e-08,1.692175265043714487e-04
4.695554440032972817e-08,1.711010259704054870e-04
4.765583382435774596e-08,1.730054894750391963e-04
4.836481833887945743e-08,1.749311399007590507e-04
4.908384035516847846e-08,1.768782193031614286e-04
4.981752715758544520e-08,1.788469770244968985e-04
5.056436294996689067e-08,1.808376550518565515e-04
5.131999081784741699e-08,1.828505151895756515e-04
5.208516071908253012e-08,1.848857987140211940e-04
5.286012344615328457e-08,1.869437194752310901e-04
5.364509571264832015e-08,1.890245323454515321e-04
5.444529729937949473e-08,1.911285089881126339e-04
5.526120229364914312e-08,1.932559063170546953e-04
5.608595339353627020e-08,1.954070071937106417e-04
5.691859779401239276e-08,1.975820836618619636e-04
5.776475789628174574e-08,1.997813390503730944e-04
5.862577696364022736e-08,2.020050198670355626e-04
5.949908123327883430e-08,2.042534761714584891e-04
6.038367999519659245e-08,2.065270151553956523e-04
6.128256624936702331e-08,2.088258556476175315e-04
6.219805261053687716e-08,2.111502530493495505e-04
6.312604572711920434e-08,2.135005191099113462e-04
6.406325515532006878e-08,2.158769466846697203e-04
6.501399081034133864e-08,2.182798403650221600e-04
6.598152395090858622e-08,2.207095226687642029e-04
6.696434463392692924e-08,2.231662540316687855e-04
6.796213026018383016e-08,2.256502848556876857e-04
6.897455382213647875e-08,2.281619569713506598e-04
7.000014498126842360e-08,2.307016311977344461e-04
7.103993750040157745e-08,2.332695893959080887e-04
7.209553530689978972e-08,2.358660932487250067e-04
7.316661347278028872e-08,2.384914837348583126e-04
7.425209206589466176e-08,2.411461408270366080e-04
7.535281492008428480e-08,2.438303746293044678e-04
7.647276151362901920e-08,2.465444613021778968e-04
7.761167143173097740e-08,2.492887399860710244e-04
7.876678078551592464e-08,2.520635838965791607e-04
7.993840114284342080e-08,2.548693324251930198e-04
8.112535981828654041e-08,2.577063055426575969e-04
8.232752797755173713e-08,2.605748488079746069e-04
8.354732559493877781e-08,2.634753248815604500e-04
8.478493451336947720e-08,2.664080862972752488e-04
8.604256657220337877e-08,2.693735245512664071e-04
8.732136534721461291e-08,2.723720282601737154e-04
8.861987193420727931e-08,2.754038763483242225e-04
8.993852201084286417e-08,2.784693830096669439e-04
9.127502656863507168e-08,2.815690362191673821e-04
9.262731798970198683e-08,2.847032957708155827e-04
9.399850958358308140e-08,2.878724382380857378e-04
9.539053039878329625e-08,2.910767641914243091e-04
9.680304252314290416e-08,2.943167497801644746e-04
9.823636337313647617e-08,2.975928645733926479e-04
9.969077950954671973e-08,3.009054694085411372e-04
1.011660132081303831e-07,3.042549411999145598e-04
1.026636984461480177e-07,3.076416978002342525e-04
1.041882022809967459e-07,3.110661526547204951e-04
1.057372158464719615e-07,3.145287232583701947e-04
1.073042215324807641e-07,3.180298189160046698e-04
1.088912650615554068e-07,3.215698792691496334e-04
1.105023834954301454e-07,3.251493933276963680e-04
1.121373773607386247e-07,3.287687890967148441e-04
1.137964050747596395e-07,3.324284479204433129e-04
1.154797576162331362e-07,3.361288221094178592e-04
1.171879689608168881e-07,3.398704228423570319e-04
1.189213408826610844e-07,3.436537129159858732e-04
1.206801724695163527e-07,3.474791008882074407e-04
1.224646647942245761e-07,3.513470468031895883e-04
1.242761549435902001e-07,3.552580573243024832e-04
1.261154357612864299e-07,3.592126199559823050e-04
1.279813006970139785e-07,3.632111984218573436e-04
1.298734007262732164e-07,3.672542708979047122e-04
1.317931830315436357e-07,3.713423616679011226e-04
1.337413562769606897e-07,3.754759882399951593e-04
1.357182084131497812e-07,3.796556386195013119e-04
1.377241463187099602e-07,3.838818197212865964e-04
1.397595820793303211e-07,3.881550423444843096e-04
1.418256977035417030e-07,3.924758108963039200e-04
1.439208555076779706e-07,3.968446811355865020e-04
1.460412480655978084e-07,4.012622269504900253e-04
1.481914207982266390e-07,4.057289635782939806e-04
1.503789524276627370e-07,4.102454030481126799e-04
1.526013890459190980e-07,4.148121125028175261e-04
1.548562409833093691e-07,4.194296643678856553e-04
1.571437308467238008e-07,4.240986257008489118e-04
1.594589084830949538e-07,4.288195935092954094e-04
1.618044948124028286e-07,4.335931366290115651e-04
1.641967143246123201e-07,4.384197763574931091e-04
1.666341683636448058e-07,4.433001115186505840e-04
1.690960165795949726e-07,4.482348242031258248e-04
1.715822862105215813e-07,4.532245206009609504e-04
1.741101380682352136e-07,4.582697521771345690e-04
1.766818859203169407e-07,4.633711329136968866e-04
1.792873123127424605e-07,4.685292979429077310e-04
1.819239077129262062e-07,4.737448787588195731e-04
1.846025924426982273e-07,4.790185164193258680e-04
1.873282416139676453e-07,4.843508467589108550e-04
1.900914206143449163e-07,4.897425764828638745e-04
1.928873665394316647e-07,4.951944103892134052e-04
1.957244267647518455e-07,5.007069288535709491e-04
1.986073204845989533e-07,5.062807399294543074e-04
2.015334491103876329e-07,5.119166109748313383e-04
2.045025397588630480e-07,5.176153079663787680e-04
2.075141350436070573e-07,5.233774551949155066e-04
2.105663841978938669e-07,5.292036844310395215e-04
2.136617555626402942e-07,5.350947534185315118e-04
2.168020924801322097e-07,5.410514203136512551e-04
2.199895466240557796e-07,5.470744103607809872e-04
2.232318111081969176e-07,5.531644769644529372e-04
2.265253371343780747e-07,5.593223634312619822e-04
2.298589459268972547e-07,5.655488266652199201e-04
2.332359975814872189e-07,5.718446260747389901e-04
2.366636468928192806e-07,5.782105056529387999e-04
2.401417508523134833e-07,5.846472487687619799e-04
2.436707921157196545e-07,5.911556514026609791e-04
2.472513754872539083e-07,5.977365105072349801e-04
2.508844462590131081e-07,6.043906388233892665e-04
2.545706287736434030e-07,6.111188527754356746e-04
2.583108187884730507e-07,6.179219610478935100e-04
2.621056596603827639e-07,6.248007902310940024e-04
2.659561040463867893e-07,6.317562222870070797e-04
2.698628375185873228e-07,6.387891248318198611e-04
2.738268076928495736e-07,6.459003212890490012e-04
2.778487503374800368e-07,6.530906664514261059e-04
2.819296221937709521e-07,6.603610658304390158e-04
2.860714188096066662e-07,6.677124098251840901e-04
2.902708799323181836e-07,6.751456304858444559e-04
2.945239591449931752e-07,6.826616888102798528e-04
2.988374924210500220e-07,6.902614304716878741e-04
3.032169602417896527e-07,6.979457058927174880e-04
3.076626962039913972e-07,7.057155092037196509e-04
3.121781653753097053e-07,7.135718289774576175e-04
3.167621895847586037e-07,7.215156302758647493e-04
3.214123573775570394e-07,7.295479296028887931e-04
3.261304228458280080e-07,7.376696834119505532e-04
3.309187824468187505e-07,7.458818201930415186e-04
3.357764248174783842e-07,7.541853616939925634e-04
3.406938805866509510e-07,7.625813367516314856e-04
3.456749015308742352e-07,7.710707793481720454e-04
3.507399539527506704e-07,7.796548104270801128e-04
3.558886421542161551e-07,7.883344756470506273e-04
3.611125331348479222e-07,7.971107187175057200e-04
3.664129769458636456e-07,8.059846087523110788e-04
3.717820776898572769e-07,8.149573534477497433e-04
3.772186996726675402e-07,8.240300712069779324e-04
3.827318224191547619e-07,8.332037905609521221e-04
3.883211956033184002e-07,8.424796201921574317e-04
3.940016736570736740e-07,8.518587178773723897e-04
3.997835618625773757e-07,8.613422329515806270e-04
4.056454512537024069e-07,8.709313384174559780e-04
4.115743429322903602e-07,8.806272111483996919e-04
4.175927992772578236e-07,8.904310519843418661e-04
4.237181486136900779e-07,9.003440789051147261e-04
4.299320969311640900e-07,9.103674844997270473e-04
4.362194184005855754e-07,9.205024739915436231e-04
4.425927402949991635e-07,9.307503121731398139e-04
4.490622957606283730e-07,9.411123039409018771e-04
4.556252777608031180e-07,9.515896469957201009e-04
4.622796816627186724e-07,9.621834306796783623e-04
4.690294208757721123e-07,9.728951357182663660e-04
4.758801780893127495e-07,9.837265509000168821e-04
4.828344673509750310e-07,9.946788003627660048e-04
4.899061623733653187e-07,1.005752696359816763e-03
4.970916857007822111e-07,1.016949699908683159e-03
5.043655251470337780e-07,1.028271422402079766e-03
5.117317887526050968e-07,1.039719215601796762e-03
5.192082897757777190e-07,1.051294223237415459e-03
5.267959881837955986e-07,1.062997852680912627e-03
5.344765823986553101e-07,1.074832047521858151e-03
5.422468250232744524e-07,1.086798297327102973e-03
5.501457623694853192e-07,1.098898006660308652e-03
5.581829749213559337e-07,1.111132735559108332e-03
5.663387135987889956e-07,1.123503500303090928e-03
5.746106838217746077e-07,1.136011597553475807e-03
5.830007682432772850e-07,1.148659082331755354e-03
5.915078632773989602e-07,1.161447837184056368e-03
6.001401137061189701e-07,1.174378731039902451e-03
6.089067314201291537e-07,1.187452755850760752e-03
6.177941408499872506e-07,1.200672417449494093e-03
6.267852552508370109e-07,1.214040066889688447e-03
6.359063186042406595e-07,1.227556799340264208e-03
6.451900140984747469e-07,1.241223961097521295e-03
6.546115861568313722e-07,1.255043228144836964e-03
6.641347578306623443e-07,1.269016038278758399e-03
6.737865302442797088e-07,1.283144282515697203e-03
6.836108768279958482e-07,1.297429987570065772e-03
6.935949517871594892e-07,1.311874834375192402e-03
7.037231081385462170e-07,1.326480577326551256e-03
7.139966299468572774e-07,1.341249020649606027e-03
7.243925700606550190e-07,1.356182045443089226e-03
7.349171676340568484e-07,1.371281462798184343e-03
7.456030003507094220e-07,1.386548939820138413e-03
7.564501251415197278e-07,1.401986352627904988e-03
7.674479031914731442e-07,1.417595363544843978e-03
7.785961226875957884e-07,1.433377834219719997e-03
7.899310652225764146e-07,1.449336303309675406e-03
8.014646475962598968e-07,1.465472820212886758e-03
8.131498772519479146e-07,1.481789141632694137e-03
8.249756661219435956e-07,1.498287315066791723e-03
8.369664270187071120e-07,1.514968955876814334e-03
8.491269285153905450e-07,1.531835826893081405e-03
8.614658411502789958e-07,1.548890609922772476e-03
8.739859893725122936e-07,1.566135710311534384e-03
8.867023364507430995e-07,1.583572977981871589e-03
8.996450613309206480e-07,1.601204488182946927e-03
9.127620300583176698e-07,1.619032337615062926e-03
9.259815127291899810e-07,1.637058628950263011e-03
9.393830464364682126e-07,1.655285543145771461e-03
9.530747045442704048e-07,1.673715154697916468e-03
9.669855928546721816e-07,1.692349901168647844e-03
9.810071999713585092e-07,1.711192395392553819e-03
9.951946564036502770e-07,1.730244834285369661e-03
1.009641020684225566e-06,1.749509464531008064e-03
1.024323974777343119e-06,1.768988639821908763e-03
1.039205698844182745e-06,1.788684563442373941e-03
1.054295943040686392e-06,1.808599719613743087e-03
1.069616608734443630e-06,1.828737024765017928e-03
1.085167523165635423e-06,1.849098898121425078e-03
1.100903875120374492e-06,1.869687157996330513e-03
1.116824924906177485e-06,1.890504309260041720e-03
1.133015063840359070e-06,1.911553384477589169e-03
1.149490815956598773e-06,1.932837003348103662e-03
1.166171956253304641e-06,1.954357657233511420e-03
1.183036035999198076e-06,1.976117983609209598e-03
1.200171339668435487e-06,1.998120583337943418e-03
1.217617874500137205e-06,2.020368049831299060e-03
1.235297018929789376e-06,2.042863515387917904e-03
1.253163481415071668e-06,2.065610092551664091e-03
1.271300909458857888e-06,2.088609831471366102e-03
1.289772530333742211e-06,2.111865027216607970e-03
1.308506975125728747e-06,2.135379032043417148e-03
1.327446846746272117e-06,2.159154966158933608e-03
1.346639627662073156e-06,2.183195779956525334e-03
1.366118723647072377e-06,2.207504658070839464e-03
1.385881387559326846e-06,2.232084388846773421e-03
1.405941562448790405e-06,2.256937744744760745e-03
1.426295116382049630e-06,2.282067834341749372e-03
1.446922621978166215e-06,2.307477720183715234e-03
1.467846093478753153e-06,2.333170527329093014e-03
1.489143509665522709e-06,2.359149410088066858e-03
1.510787975554998543e-06,2.385417585889594138e-03
1.532630477802868719e-06,2.411978567922537942e-03
1.554696192977205257e-06,2.438835557121471227e-03
1.577135278980886146e-06,2.465991292464496908e-03
1.599947408324516266e-06,2.493449109216892921e-03
1.623096294260683150e-06,2.521213022761763841e-03
1.646586784587629488e-06,2.549286505194558062e-03
1.670408010114811472e-06,2.577672436972139065e-03
1.694559849173205515e-06,2.606374180022331087e-03
1.719059410570909861e-06,2.635395656806611281e-03
1.743911163153886074e-06,2.664740504283021234e-03
1.769130352091381005e-06,2.694412313360769386e-03
1.794739943067155625e-06,2.724414877814808778e-03
1.820684856570581412e-06,2.754751315919135631e-03
1.846912202090811308e-06,2.785424784020797823e-03
1.873522778283838387e-06,2.816440016376057977e-03
1.900607585096288745e-06,2.847801732631672408e-03
1.928083324868496211e-06,2.879512788144145304e-03
1.955860752095074068e-06,2.911576127310725251e-03
1.984030056716990682e-06,2.943996288711019441e-03
2.012715047936298645e-06,2.976777688302748460e-03
2.041840781581268842e-06,3.009924359982741292e-03
2.071286563687938600e-06,3.043440905515717651e-03
2.101104380925583283e-06,3.077331020697404284e-03
2.131365903394956343e-06,3.111597654205337272e-03
2.162063651744014241e-06,3.146245387610052766e-03
2.193202990950474376e-06,3.181279500955001838e-03
2.224789171255929803e-06,3.216704132928638500e-03
2.256823324971388868e-06,3.252523238660241529e-03
2.289312876055668653e-06,3.288741233861451879e-03
2.322352375861879026e-06,3.325362526116275221e-03
2.355958630520649171e-06,3.362391580827730261e-03
2.389975231977186788e-06,3.399833447964085206e-03
2.424381943683416108e-06,3.437692865481878444e-03
2.459280395669704521e-06,3.475973642888873470e-03
2.494690486457161916e-06,3.514680228251688011e-03
2.530611474383140822e-06,3.553817968311576668e-03
2.567063491978630286e-06,3.593391907334786764e-03
2.603992810140669662e-06,3.633406401389923952e-03
2.641344137551692396e-06,3.673865978293170981e-03
2.679249742817047058e-06,3.714776319409881719e-03
2.717808893017417979e-06,3.756142979166003995e-03
2.756951168476311113e-06,3.797970543624177697e-03
2.796634744059159189e-06,3.840263880171975678e-03
2.836894344833777010e-06,3.883028179452531134e-03
2.877765977607053199e-06,3.926268420078758356e-03
2.919219991620181567e-06,3.969990234664439420e-03
2.961192866261138857e-06,4.014199693682743604e-03
3.003726594371255226e-06,4.058901759692137498e-03
3.046890643512933975e-06,4.104100902446880528e-03
3.090670363875769037e-06,4.149803057806622855e-03
3.135017294902283108e-06,4.196014815622644591e-03
3.179962403750116426e-06,4.242741654842189548e-03
3.225666020145073735e-06,4.289988884874955215e-03
3.272116906367609864e-06,4.337762335056001388e-03
3.319130897248463001e-06,4.386067823823888885e-03
3.366714325982760311e-06,4.434911267856020932e-03
3.414985254078795238e-06,4.484298845007036842e-03
3.463956238731700586e-06,4.534236627448596200e-03
3.513624736030406855e-06,4.584730709198329805e-03
3.563985186522513384e-06,4.635787318982263934e-03
3.615147246033603900e-06,4.687412464336667382e-03
3.667185241191413299e-06,4.739612349078771783e-03
3.719917848371200863e-06,4.792393658625868080e-03
3.773257925996838444e-06,4.845762957125155160e-03
3.827335582540042247e-06,4.899726766781040653e-03
3.882232530814366190e-06,4.954291761549232086e-03
3.937861549814426612e-06,5.009464497782501781e-03
3.994123983340595207e-06,5.065251500789215433e-03
4.051173081130048712e-06,5.121660016442626008e-03
4.109172929479759388e-06,5.178697527354972525e-03
4.168058753709951403e-06,5.236370562334097430e-03
4.227817502781364766e-06,5.294685661744370601e-03
4.288421034231681465e-06,5.353650090369582205e-03
4.349718748700611311e-06,5.413270851195086178e-03
4.411813910552438812e-06,5.473555522775585581e-03
4.474968155738725524e-06,5.534512508257148286e-03
4.539133365647536458e-06,5.596148987731054507e-03
4.604209365917970989e-06,5.658471579311378369e-03
4.670210584958755795e-06,5.721488062599441524e-03
4.737006362700940644e-06,5.785206739587827815e-03
4.804610351056736474e-06,5.849635400989335217e-03
4.873342920914444322e-06,5.914781625442802615e-03
4.943254281677890025e-06,5.980653373568920426e-03
5.013872229610290126e-06,6.047259046057787933e-03
5.085070529669357575e-06,6.114606903282610029e-03
5.157522380411555138e-06,6.182704713895396595e-03
5.231457885018390169e-06,6.251560616386159751e-03
5.306390581378755184e-06,6.321183671162731478e-03
5.382157358462831944e-06,6.391582644972778129e-03
5.458972121606450751e-06,6.462765945992180079e-03
5.536916261838166095e-06,6.534742323656314925e-03
5.615954092337227546e-06,6.607520354969717222e-03
5.696067448200941683e-06,6.681108541511503879e-03
5.777322256405218012e-06,6.755516612777577416e-03
5.859786215460045476e-06,6.830754622905116889e-03
5.943442129055841033e-06,6.906830859763009138e-03
6.028319441773854444e-06,6.983753362186847016e-03
6.114354451654545035e-06,7.061532416716457920e-03
6.201321324391301359e-06,7.140178771669683511e-03
