Pressure [MeV/fm^3],Energy Density [MeV/fm^3]
2.199097256731344794e-08,9.515661095629641324e-05
2.232432368404017961e-08,9.622181455855290469e-05
2.266263321177091384e-08,9.729894599084380790e-05
2.300641540231554430e-08,9.838818235947259549e-05
2.335530798774859678e-08,9.948963043399516469e-05
2.370821372717075221e-08,1.006033778855530209e-04
2.406600638464090439e-08,1.017295781128259226e-04
2.443124142418782293e-08,1.028683878079735919e-04
2.480305797846898077e-08,1.040199454073050488e-04
2.517840236421132415e-08,1.051843972170498216e-04
2.555797180391700848e-08,1.063618864667506249e-04
2.594441162379861762e-08,1.075525516190034889e-04
2.633756940059521837e-08,1.087565418642535948e-04
2.673633563867997437e-08,1.099740367422842379e-04
2.714079962825084202e-08,1.112051881852535977e-04
2.755158224548884231e-08,1.124500931662671365e-04
2.796885712432551532e-08,1.137088989416414650e-04
2.839151070596382490e-08,1.149818185218832366e-04
2.881917580088520366e-08,1.162690223941151887e-04
2.925430678607414006e-08,1.175706160559516144e-04
2.969786139378863573e-08,1.188867415423014537e-04
3.014750580269825422e-08,1.202176168633244363e-04
3.060231634392663059e-08,1.215634276260770739e-04
3.106416532623771989e-08,1.229243118169227639e-04
3.153412736978696401e-08,1.243004286328717762e-04
3.201069899419495357e-08,1.256919551634441744e-04
3.249267733058688570e-08,1.270990755864429315e-04
3.298200756893654854e-08,1.285219300311052273e-04
3.348033069344596732e-08,1.299606481337560926e-04
3.398650477381770156e-08,1.314154696383982267e-04
3.449965932061946546e-08,1.328866369490926461e-04
3.502045228100107962e-08,1.343743020456968150e-04
3.554964261903695225e-08,1.358786454133438927e-04
3.608661332531767082e-08,1.373998281945133933e-04
3.663006456440562599e-08,1.389379618752109385e-04
3.718077470144188155e-08,1.404932813234596701e-04
3.773979293491497034e-08,1.420660653548364157e-04
3.830730134139721189e-08,1.436564863570501550e-04
3.888495974662720747e-08,1.452647180991215178e-04
3.947229820857002470e-08,1.468909618540315877e-04
4.006659346019987909e-08,1.485354067760610364e-04
4.066843032097695668e-08,1.501982564789590977e-04
4.128099778034020002e-08,1.518796962830679055e-04
4.190425245117921656e-08,1.535799351061183939e-04
4.253522515123994194e-08,1.552992227227731586e-04
4.317383217093057317e-08,1.570377726117238464e-04
4.382345320844460773e-08,1.587958066698699940e-04
4.448476698125751617e-08,1.605735462658649897e-04
4.515474973256463591e-08,1.623711962891939860e-04
4.583279323719136163e-08,1.641889827081556075e-04
4.652077850510099189e-08,1.660270960428459187e-04
4.721890344639492586e-08,1.678857464479951533e-04
4.792857417451741595e-08,1.697652040410511703e-04
4.865116526701688588e-08,1.716657113158558438e-04
4.938393043253297876e-08,1.735875114934970292e-04
5.012516145611447925e-08,1.755308597634383354e-04
5.087712297606936286e-08,1.774959627689403437e-04
5.164117632450772764e-08,1.794830323007537626e-04
5.241660297706226305e-08,1.814923519738521397e-04
5.320304063937445862e-08,1.835242112481998004e-04
5.400101190000793144e-08,1.855788177234146880e-04
5.481059297439689347e-08,1.876563677125679620e-04
5.563274696340434652e-08,1.897571658324412368e-04
5.646982158153076236e-08,1.918815410628684740e-04
5.732020319048517800e-08,1.940297179340613439e-04
5.818046146631565901e-08,1.962019004605217534e-04
5.905214566208656054e-08,1.983983842794086617e-04
5.993778693481346806e-08,2.006194897882480975e-04
6.083696821743840714e-08,2.028654823096304020e-04
6.174899911124578905e-08,2.051366364146169649e-04
6.267419409834420271e-08,2.074332284475853159e-04
6.361318875829196125e-08,2.097554816347360000e-04
6.456613717442693181e-08,2.121036908585716835e-04
6.553380358437304282e-08,2.144782301254695585e-04
6.651637783444439910e-08,2.168793933134101966e-04
6.751312253131807521e-08,2.193074425524222726e-04
6.852412441862472453e-08,2.217626780813056729e-04
6.955016701022820843e-08,2.242454063923823436e-04
7.059142570437790135e-08,2.267559353847262518e-04
7.164862236143924259e-08,2.292945772544653421e-04
7.272223429019454266e-08,2.318616542959798447e-04
7.381151771897230675e-08,2.344574387049754862e-04
7.491626363185428064e-08,2.370822205996480367e-04
7.603735442199667969e-08,2.397364041748520846e-04
7.717509490676531172e-08,2.424203555105629098e-04
7.833008354912476015e-08,2.451343752917506803e-04
7.950306247723525733e-08,2.478788007918541472e-04
8.069341821981287253e-08,2.506539414757564459e-04
8.190109816722452482e-08,2.534600984600032824e-04
8.312560256995793345e-08,2.562976686409676290e-04
8.436508833330106203e-08,2.591670499418744010e-04
8.562273030283109864e-08,2.620685747412786161e-04
8.690326427006901604e-08,2.650025879338150443e-04
8.820441378423939339e-08,2.679694604414357474e-04
8.952389830016006323e-08,2.709695763096837593e-04
9.086210907133836711e-08,2.740032843742354080e-04
9.221700112077705299e-08,2.770708879564327495e-04
9.359044728792003790e-08,2.801728011461026647e-04
9.498850288813149987e-08,2.833095054182137719e-04
9.641002814450752331e-08,2.864813654670927295e-04
9.785167904621084386e-08,2.896887046865866664e-04
9.931395671518733007e-08,2.929319307846515205e-04
1.007950177984692454e-07,2.962114903324567124e-04
1.022952451175025867e-07,2.995277878096868512e-04
1.038214231311867419e-07,3.028812215425018078e-04
1.053741592217705324e-07,3.062722076922378225e-04
1.069493302231467731e-07,3.097011640095188650e-04
1.085470755875515307e-07,3.131685161547995188e-04
1.101661414680688885e-07,3.166746844215128699e-04
1.118059711165538009e-07,3.202200982991188112e-04
1.134697458907746264e-07,3.238052220014594595e-04
1.151577498093269785e-07,3.274305156573961511e-04
1.168735274423533577e-07,3.310963750699677760e-04
1.186203766492319872e-07,3.348032138637076129e-04
1.203916533326486540e-07,3.385515890135455978e-04
1.221828123124405526e-07,3.423420350081552658e-04
1.240009799674185667e-07,3.461749222102156187e-04
1.258516419861661315e-07,3.500506572720464928e-04
1.277295227793246864e-07,3.539697796107644395e-04
1.296293974350776128e-07,3.579328195732186862e-04
1.315574153624915495e-07,3.619402297922098854e-04
1.335212165129131094e-07,3.659924624062999249e-04
1.355153413361675764e-07,3.700900577659303335e-04
1.375323900468924344e-07,3.742335792772577465e-04
1.395763295085150463e-07,3.784235107144915495e-04
1.416515838860014122e-07,3.826603218729013236e-04
1.437575899270186396e-07,3.869445661684608692e-04
1.458946890846364128e-07,3.912768492898096749e-04
1.480634693633097963e-07,3.956576781107735302e-04
1.502656306433819389e-07,4.000874927382648289e-04
1.525012101560593265e-07,4.045668632962736897e-04
1.547686109418704510e-07,4.090964252596480401e-04
1.570684324192354295e-07,4.136767320268421662e-04
1.594024639527802186e-07,4.183083041882053798e-04
1.617710752579582003e-07,4.229917160310824650e-04
1.641747580451156962e-07,4.277276023385661024e-04
1.666139328185153369e-07,4.325165570947327892e-04
1.690889414324182446e-07,4.373591107735512592e-04
1.715995672091526235e-07,4.422558502777482344e-04
1.741524229431125087e-07,4.472074380074549885e-04
1.767518801766597937e-07,4.522145024557592272e-04
1.793826838900380016e-07,4.572776334067710636e-04
1.820374493633406772e-07,4.623974502482104849e-04
1.847325833220465455e-07,4.675745952998491893e-04
1.874754723781215637e-07,4.728097109681766714e-04
1.902602126403265596e-07,4.781034486172053006e-04
1.930851022454830762e-07,4.834564705704055051e-04
1.959517705251654758e-07,4.888694256408720063e-04
1.988619713706672276e-07,4.943429643756734387e-04
2.018130048796345273e-07,4.998777947697665173e-04
2.047983128944760290e-07,5.054746340956731100e-04
2.078289110047815498e-07,5.111341582067688684e-04
2.109235939005490407e-07,5.168570573112477766e-04
2.140684602218840220e-07,5.226440412276373579e-04
2.172402044349501782e-07,5.284958210647731653e-04
2.204507930203708347e-07,5.344131217468885793e-04
2.237195056298876853e-07,5.403966643100469210e-04
2.270405181986995562e-07,5.464472028699875542e-04
2.304016905991230675e-07,5.525655380337949046e-04
2.338073632835229878e-07,5.587524126574984831e-04
2.372719255853723215e-07,5.650085320157002475e-04
2.407936374704348847e-07,5.713346825156154782e-04
2.443592542738293864e-07,5.777317110261778786e-04
2.479702403675156183e-07,5.842004071263088997e-04
2.516421220886999835e-07,5.907415186120177925e-04
2.553763142193353939e-07,5.973558551840421138e-04
2.591587773371590392e-07,6.040442474621948114e-04
2.629876935453912238e-07,6.108075229431200086e-04
2.668788487657360699e-07,6.176465313309491972e-04
2.708359727865644911e-07,6.245621171967040029e-04
2.748539018711337003e-07,6.315551734073733200e-04
2.789342289377680245e-07,6.386265885377130245e-04
2.830686594535505271e-07,6.457771757205371275e-04
2.872521178957141917e-07,6.530077893301966269e-04
2.914951126260311324e-07,6.603193785357848889e-04
2.958022999673451002e-07,6.677128728869261443e-04
3.001729142951337574e-07,6.751891750782763966e-04
3.046060912037639206e-07,6.827492198013775842e-04
3.091082480116200121e-07,6.903939130983771568e-04
3.136889508894436764e-07,6.981241544080745961e-04
3.183380205010009776e-07,7.059409604432797646e-04
3.230430336505082309e-07,7.138453742729708581e-04
3.278125616291332395e-07,7.218383228818710164e-04
3.326543692699573120e-07,7.299207320203594807e-04
3.375674433719747439e-07,7.380936355501693455e-04
3.425528797689723708e-07,7.463580893452303501e-04
3.476116089009174083e-07,7.547150981531421761e-04
3.527448512590739624e-07,7.631656522377265042e-04
3.579535462407210440e-07,7.717108208533813565e-04
3.632390359864075160e-07,7.803517450785259863e-04
3.686022430905640105e-07,7.890894766964650503e-04
3.740444414502992277e-07,7.979250077273195452e-04
3.795665887761233866e-07,8.068594445356054232e-04
3.851701150441756212e-07,8.158939870726462104e-04
3.908559926524215824e-07,8.250297549391315179e-04
3.966256213918543514e-07,8.342677983666312415e-04
4.024800006060225217e-07,8.436092562079074760e-04
4.084211811847490524e-07,8.530553325757503835e-04
4.144514524828664130e-07,8.626072014101492363e-04
4.205610497209064017e-07,8.722660572005371806e-04
4.267449833228417823e-07,8.820331064699416445e-04
4.330269464112943106e-07,8.919095259016188854e-04
4.394168593051026851e-07,9.018965243433165000e-04
4.459029571055395860e-07,9.119953699683250445e-04
4.524823173349004954e-07,9.222073252738397387e-04
4.591585852153553664e-07,9.325336534166595763e-04
4.659358025999806148e-07,9.429756672737658408e-04
4.728064624149118236e-07,9.535345566921424928e-04
4.797590459356057326e-07,9.642114424871118129e-04
4.868135946279427043e-07,9.750079769712680566e-04
4.939941678557628591e-07,9.859259553898196832e-04
5.012825877665468313e-07,9.969662772858483169e-04
5.086585053845276859e-07,1.008129683419916331e-03
5.161334880979162181e-07,1.019417994336037445e-03
5.237141980923350655e-07,1.030833307398777319e-03
5.314068517550613461e-07,1.042376616191428851e-03
5.392365649487709544e-07,1.054048489205182144e-03
5.471931428686938369e-07,1.065850720622462658e-03
5.552442377992534647e-07,1.077785535003158903e-03
5.634011524733658705e-07,1.089854288318931573e-03
5.716991882067938660e-07,1.102058502118798741e-03
5.801338552828893659e-07,1.114399630054269032e-03
5.886736963892449416e-07,1.126878329474443816e-03
5.973219578338638179e-07,1.139496204587832828e-03
6.060977028253755156e-07,1.152256004496273953e-03
6.150018091772817051e-07,1.165159367470747437e-03
6.240526892032382432e-07,1.178206715204927185e-03
6.332567252410588789e-07,1.191399498355455531e-03
6.425819352753396058e-07,1.204740255590201281e-03
6.520221400901194535e-07,1.218230802771751468e-03
6.616001952639116578e-07,1.231872478279996946e-03
6.713254372691490416e-07,1.245666915813824173e-03
6.811767104297645517e-07,1.259615882276376693e-03
6.911351104533972845e-07,1.273721157247429715e-03
7.012599617646362142e-07,1.287984306042552892e-03
7.115938269526466697e-07,1.302406941401567254e-03
7.220819512055607096e-07,1.316991103575481737e-03
7.326912241801318511e-07,1.331738736244567544e-03
7.434487775894677648e-07,1.346651645459291625e-03
7.543683342438836980e-07,1.361731757621789229e-03
7.654478234447426488e-07,1.376980816024184293e-03
7.766945612825395690e-07,1.392400606930201210e-03
7.880981129471819439e-07,1.407992985899508137e-03
7.996306411588957742e-07,1.423759564799137716e-03
8.113203741350398903e-07,1.439702675102577309e-03
8.232208275349179999e-07,1.455825199813808946e-03
8.353155710180641613e-07,1.472128674445437064e-03
8.475847036563221396e-07,1.488614134551083032e-03
8.600306030118749480e-07,1.505283872555271581e-03
8.726295677318267424e-07,1.522140325042464900e-03
8.853924577223336914e-07,1.539185536720384922e-03
8.983748541056075343e-07,1.556421690238183556e-03
9.115720973858571632e-07,1.573850921009845114e-03
9.249257262080822911e-07,1.591475464398538469e-03
9.384384800376830363e-07,1.609297509034262426e-03
9.521823979364352169e-07,1.627319402016665518e-03
9.661658999823348419e-07,1.645543433749230722e-03
9.803434976450650171e-07,1.663971159647312280e-03
9.947146181950639199e-07,1.682604698499990574e-03
1.009266490455232574e-06,1.701447070687923642e-03
1.023984013036524683e-06,1.720500759627997464e-03
1.038948925079626219e-06,1.739767933659564078e-03
1.054202019066389829e-06,1.759250980915534526e-03
1.069668123517006242e-06,1.778952207616861514e-03
1.085309627523220396e-06,1.798873969194531800e-03
1.101189571601397530e-06,1.819018880882037389e-03
1.117352867807932749e-06,1.839389527226996520e-03
1.133743960280722446e-06,1.859988352007251391e-03
1.150318122221717554e-06,1.880817836447583845e-03
1.167121050073820968e-06,1.901880670867597042e-03
1.184187626728899839e-06,1.923179635422004197e-03
1.201507015630730155e-06,1.944717154570161245e-03
1.219078795236970971e-06,1.966495595478511948e-03
1.236904713364019412e-06,1.988517825634695136e-03
1.254979625612799904e-06,2.010786676408983162e-03
1.273313979273430010e-06,2.033305017683077233e-03
1.291934392601357710e-06,2.056076168632137331e-03
1.310827599414047775e-06,2.079102658668500157e-03
1.329932326533344160e-06,2.102386470060816585e-03
1.349281174424474514e-06,2.125930701556699720e-03
1.369016220973231869e-06,2.149738754077135799e-03
1.389117127874353937e-06,2.173813545536527544e-03
1.409464739184830750e-06,2.198158334811940728e-03
1.430068853308929289e-06,2.222776120899065590e-03
1.450925845188353233e-06,2.247669326146317301e-03
1.472033649282999037e-06,2.272841011006969045e-03
1.493500130580411349e-06,2.298294907910702987e-03
1.515346152821667954e-06,2.324034263743597270e-03
1.537465184167597978e-06,2.350061688951398178e-03
1.559830825823981356e-06,2.376380253683371170e-03
1.582560551726690362e-06,2.402993795113717891e-03
1.605701772515542164e-06,2.429905784783556282e-03
1.629149287089304544e-06,2.457119279438967421e-03
1.652850506706803377e-06,2.484637628423584047e-03
1.676920161330250905e-06,2.512464084258713131e-03
1.701431276127474520e-06,2.540601920878638505e-03
1.726291450443449065e-06,2.569054924665070076e-03
1.751444873782987211e-06,2.597826778326115058e-03
1.776940855342050704e-06,2.626921038428351590e-03
1.802789910718653619e-06,2.656341415392486031e-03
1.829032100434947138e-06,2.686091409501160671e-03
1.855749443920126777e-06,2.716174572373905236e-03
1.882871313877510698e-06,2.746594625499363881e-03
1.910294018948309135e-06,2.777355131536817911e-03
1.938074093289307135e-06,2.808460171981202753e-03
1.966270984119528115e-06,2.839914286391542666e-03
1.994879903186456726e-06,2.871720975950092358e-03
2.023921664612512852e-06,2.903883232562277927e-03
2.053394004238580764e-06,2.936405343971602508e-03
2.083275945903586702e-06,2.969291995635715137e-03
2.113579638715102074e-06,3.002547192829448097e-03
2.144342717623780691e-06,3.036175212055213998e-03
2.175566519822202353e-06,3.070180201477861349e-03
2.207226498925719768e-06,3.104566034308059441e-03
2.239328487427046476e-06,3.139336986451721906e-03
2.271917818450900470e-06,3.174497256340062974e-03
2.305006823761975839e-06,3.210051163067062681e-03
2.338499200058176544e-06,3.246003636772465829e-03
2.372363172140260783e-06,3.282359263346322931e-03
2.406840470450389899e-06,3.319121923669410019e-03
2.442028801751358725e-06,3.356295983408376458e-03
2.477633723182128856e-06,3.393886591614951511e-03
2.513548974661098352e-06,3.431898597042728257e-03
2.549956231655794386e-06,3.470336416856901075e-03
2.586897165806903858e-06,3.509204674515594129e-03
2.624425052218573517e-06,3.548508435662822355e-03
2.662628879255091990e-06,3.588252798273180739e-03
2.701371521689428505e-06,3.628442294271600529e-03
2.740523708204965756e-06,3.669081565982464273e-03
2.780235409816714768e-06,3.710175941076173604e-03
2.820651512868687160e-06,3.751730637940750134e-03
2.861672160531356766e-06,3.793750931542599382e-03
2.903198773011254208e-06,3.836242339653832961e-03
2.945286224218127494e-06,3.879209968371765370e-03
2.987973908257293698e-06,3.922659002170988431e-03
3.031266438550323772e-06,3.966594824881026701e-03
3.075190251150983736e-06,4.011022725680567225e-03
3.119749173935081530e-06,4.055948280139983451e-03
3.164938803060852768e-06,4.101377211432381820e-03
3.210786943727102394e-06,4.147315106602568295e-03
3.257434445188498550e-06,4.193767503991135438e-03
3.304857992356886728e-06,4.240740195146613933e-03
3.352844121818254756e-06,4.288239191066245404e-03
3.401411822329232026e-06,4.336270370504701280e-03
3.450591796902856588e-06,4.384839614396744169e-03
3.500381230107780148e-06,4.433952941235518030e-03
3.550983689500268656e-06,4.483616647064092575e-03
3.602430186940008404e-06,4.533836935231264249e-03
3.654643383814717850e-06,4.584619719562771194e-03
3.707629712007793631e-06,4.635971214024450088e-03
3.761366313544266721e-06,4.687898097045923619e-03
3.815847004346980903e-06,4.740406922280870558e-03
3.871114853018608118e-06,4.793503907619862253e-03
3.927208408000851554e-06,4.847195431379901741e-03
3.984044294357208456e-06,4.901488694141126375e-03
4.041549720145791436e-06,4.956390839486629271e-03
4.099882861878860950e-06,5.011908002697775845e-03
4.159151988847485933e-06,5.068046490308460161e-03
4.219296781670593932e-06,5.124814028474793809e-03
4.280274712417858378e-06,5.182218417279909131e-03
4.342165769841397989e-06,5.240266017434493453e-03
4.405096158452168433e-06,5.298963255705721638e-03
4.468940211101626131e-06,5.358317850537479450e-03
4.533493841210886517e-06,5.418337449900331032e-03
4.598879899064828681e-06,5.479029555853232210e-03
4.665244593941693229e-06,5.540402101121174629e-03
4.732566716559388371e-06,5.602462522658204803e-03
4.800860112815763243e-06,5.665218214682707018e-03
4.870136454860547001e-06,5.728677016587189683e-03
4.940411406419734720e-06,5.792846798897878340e-03
5.011697069869368438e-06,5.857735488086068289e-03
5.084010988592666828e-06,5.923350799122321236e-03
5.157365228381230496e-06,5.989700939093911720e-03
5.231777326480042107e-06,6.056795073208678937e-03
5.307259665007990592e-06,6.124641508430049043e-03
5.383830585643553935e-06,6.193247515616043600e-03
5.461502837215252410e-06,6.262621502786530625e-03
5.540295180402967466e-06,6.332773068912370476e-03
5.620220865642990100e-06,6.403711034862490797e-03
5.701304845815580547e-06,6.475443949730905896e-03
5.783585587368531656e-06,6.547980708633064674e-03
5.866923160135376879e-06,6.621330224691792006e-03
5.951219301538237247e-06,6.695501537782374592e-03
6.036814790726699240e-06,6.770504015832256618e-03
6.123921825708278584e-06,6.846347138595460652e-03
6.212223965422672836e-06,6.923039844591916125e-03
6.301501217962338914e-06,7.000591216952321144e-03
6.392092865370179678e-06,7.079011545308760457e-03
6.484291525987958448e-06,7.158311045600771957e-03
6.577814317734133719e-06,7.238499243705345636e-03
6.672405352232618744e-06,7.319585976471889438e-03
