Pressure [MeV/fm^3],Energy Density [MeV/fm^3]
2.182889911522872501e-08,9.515926698767025488e-05
2.216040589995391935e-08,9.622558460644281206e-05
2.249684728147289683e-08,9.730385479041959887e-05
2.283812983563274787e-08,9.839425693807234705e-05
2.318446955207425561e-08,9.949689365508256262e-05
2.353637643037476758e-08,1.006118364586635261e-04
2.389357167490164900e-08,1.017392551379660211e-04
2.425503039047369927e-08,1.028793623722179686e-04
2.462130753741429197e-08,1.040322704811168025e-04
2.499427855497536628e-08,1.051980273790229631e-04
2.537358369201591781e-08,1.063767988699245570e-04
2.575743487199881953e-08,1.075688109000886515e-04
2.614613810073658516e-08,1.087742065292250361e-04
2.654171553037048280e-08,1.099931638016202461e-04
2.694420951553901649e-08,1.112258356239133328e-04
2.735247012436703518e-08,1.124722619503808505e-04
2.776651314805662442e-08,1.137325877106689509e-04
2.818702369749249014e-08,1.150070603593048263e-04
2.861425295370395040e-08,1.162958518822039626e-04
2.904709131828122718e-08,1.175990644981947863e-04
2.948521761412438908e-08,1.189168425404399609e-04
2.992978670204656445e-08,1.202494052364253148e-04
3.038094996341626632e-08,1.215969370591685878e-04
3.083958435610333484e-08,1.229595763181759211e-04
3.130659698235575208e-08,1.243374835774889778e-04
3.178022293394654334e-08,1.257308365005660304e-04
3.225914441964593420e-08,1.271398196687997567e-04
3.274545702597086048e-08,1.285645720521218021e-04
3.324091636163135251e-08,1.300052254241204370e-04
3.374374971625872022e-08,1.314620234430269481e-04
3.425217656892233599e-08,1.329352058457322107e-04
3.476807382144443677e-08,1.344249244670469266e-04
3.529368483043565109e-08,1.359313569247853242e-04
3.582749742187897041e-08,1.374546742133956863e-04
3.636746035431403906e-08,1.389950262424139696e-04
3.691473952214068489e-08,1.405526169644157595e-04
3.747084769357499495e-08,1.421276335741933296e-04
3.803543222052260072e-08,1.437202945403382858e-04
3.860790771190835287e-08,1.453308950329674110e-04
3.918880138556125862e-08,1.469595951433298004e-04
3.978010505647813851e-08,1.486064616699116301e-04
4.038140025182245635e-08,1.502717271881769145e-04
4.099000881411443551e-08,1.519557000863191619e-04
4.160631733889523581e-08,1.536585789333881115e-04
4.223188131220051116e-08,1.553805209224578860e-04
4.286675479769889990e-08,1.571217410098411091e-04
4.351270568093812017e-08,1.588824977448240368e-04
4.417019525217143976e-08,1.606630128514890141e-04
4.483496373602694579e-08,1.624634894912607903e-04
4.550602455776146649e-08,1.642841541518507364e-04
4.618932096653704753e-08,1.661251954163039197e-04
4.688668555943084143e-08,1.679868237075656846e-04
4.759361089412597136e-08,1.698693375974579737e-04
4.830899554592771084e-08,1.717730011791008811e-04
4.903387196257940103e-08,1.736979831722572311e-04
4.976755114397376860e-08,1.756444898794257625e-04
5.051365195505507504e-08,1.776128086812651333e-04
5.127533528460748260e-08,1.796031998105942530e-04
5.204849283133501329e-08,1.816159134266506303e-04
5.283025341702566859e-08,1.836512157022629705e-04
5.362313384696355261e-08,1.857093341913568728e-04
5.442879724288914146e-08,1.877904992272697829e-04
5.524651786886610808e-08,1.898949858888048881e-04
5.607613322484156533e-08,1.920230736231525381e-04
5.691745850383448668e-08,1.941750074523661610e-04
5.776892311824500330e-08,1.963510189080409495e-04
5.863278372093912284e-08,1.985514036210062636e-04
5.951472675246548987e-08,2.007764799365083176e-04
6.041193379264205705e-08,2.030265118974737678e-04
6.131698218564738077e-08,2.053017772400042009e-04
6.223271894585487326e-08,2.076025491790328247e-04
6.316750651154802047e-08,2.099290515847334487e-04
6.411962461494961920e-08,2.122815895537254823e-04
6.508100976968230064e-08,2.146605370515188244e-04
6.605271446271040607e-08,2.170661819292345879e-04
6.704110477784918009e-08,2.194987889024207302e-04
6.804622533485672265e-08,2.219586615711132045e-04
6.906683160014503942e-08,2.244461069638728436e-04
7.010326590069507609e-08,2.269614342261234259e-04
7.115292758120121417e-08,2.295049575641314524e-04
7.221514394123851339e-08,2.320769981817632707e-04
7.329462448760294153e-08,2.346778248625223918e-04
7.439261001778014595e-08,2.373077331533958185e-04
7.550762319681857326e-08,2.399671599641257686e-04
7.664011096595238144e-08,2.426564861489690923e-04
7.778781666904812663e-08,2.453759368544278447e-04
7.894923231226108713e-08,2.481257990337795987e-04
8.012723020008584549e-08,2.509064820962796853e-04
8.132235430585353102e-08,2.537183637527574607e-04
8.253721432386584183e-08,2.565617658997942549e-04
8.377568488314929432e-08,2.594370337242335326e-04
8.503294542198261954e-08,2.623445181218464462e-04
8.630462295776998110e-08,2.652845565916407949e-04
8.759338239167527919e-08,2.682575522706994310e-04
8.889993954400690943e-08,2.712639329210257992e-04
9.022605570724755432e-08,2.743040272459327318e-04
9.157645680123809642e-08,2.773781515951443148e-04
9.294827872604736235e-08,2.804867162977028850e-04
9.433602066949895581e-08,2.836301458270288852e-04
9.574199040329212082e-08,2.868088130113791352e-04
9.716947935187629829e-08,2.900230741139852783e-04
9.861818375608484139e-08,2.932733420875613308e-04
1.000880016601720061e-07,2.965600619867553214e-04
1.015796474994154204e-07,2.998836356274533696e-04
1.030975375669005193e-07,3.032444670494446773e-04
1.046413718425667009e-07,3.066429730495909712e-04
1.062041234902009808e-07,3.100795417043368204e-04
1.077861330594452512e-07,3.135545994890567715e-04
1.093918889586867874e-07,3.170686268315578448e-04
1.110217626691515384e-07,3.206220628012105829e-04
1.126756350564933872e-07,3.242153407321681597e-04
1.143533843789882775e-07,3.278489103083288749e-04
1.160593744493210418e-07,3.315231958582128577e-04
1.177959672744430333e-07,3.352386445039482214e-04
1.195558076200895041e-07,3.389957440463363999e-04
1.213362615008080605e-07,3.427949718894313449e-04
1.231424322703872738e-07,3.466367766451347522e-04
1.249760574828913278e-07,3.505216215594712781e-04
1.268368623748268114e-07,3.544500154842983287e-04
1.287250196315773048e-07,3.584224689583847710e-04
1.306416202859736862e-07,3.624394365156391636e-04
1.325879588114619862e-07,3.665013785804982016e-04
1.345631099670358209e-07,3.706088474460544381e-04
1.365661296895649413e-07,3.747624009008426347e-04
1.385983473093234318e-07,3.789625170169521945e-04
1.406608897567289242e-07,3.832096772029174102e-04
1.427539619615218113e-07,3.875044370368462151e-04
1.448778897717121336e-07,3.918473640634762153e-04
1.470334574643984201e-07,3.962389844585124140e-04
1.492223776116567076e-07,4.006798373018629657e-04
1.514442993219352157e-07,4.051704663724838159e-04
1.536982594358380145e-07,4.097113846140413478e-04
1.559843546201374006e-07,4.143031763601296054e-04
1.582992936110701461e-07,4.189464868443144928e-04
1.606448024759264684e-07,4.236418797305636702e-04
1.630307120636715328e-07,4.283899045914864550e-04
1.654563567311956500e-07,4.331911514027335375e-04
1.679120721956033844e-07,4.380461547339060675e-04
1.703983206853999077e-07,4.429555162453890243e-04
1.729322723487302509e-07,4.479199591015267873e-04
1.755166108021565171e-07,4.529401090340873519e-04
1.781294028440082941e-07,4.580165264089799374e-04
1.807667644755417245e-07,4.631498385475286625e-04
1.834468190870608720e-07,4.683406665767126959e-04
1.861745122509560772e-07,4.735896447572711821e-04
1.889393063356210759e-07,4.788974572092071186e-04
1.917375237066262343e-07,4.842647656866970267e-04
1.945779323735742482e-07,4.896922623882343090e-04
1.974643767184830595e-07,4.951806495008360476e-04
2.003941312619590073e-07,5.007305460862551119e-04
2.033671803099346642e-07,5.063425945195053606e-04
2.063827449408450493e-07,5.120175543383107420e-04
2.094378048438711878e-07,5.177561758141218003e-04
2.125398758893671436e-07,5.235591338094792773e-04
2.156989681637615064e-07,5.294271319204475051e-04
2.189057089265545852e-07,5.353608888110943011e-04
2.221476772188069850e-07,5.413610971495065073e-04
2.254348393363423623e-07,5.474285558761843610e-04
2.287809632902828369e-07,5.535641161521975481e-04
2.321793091792851508e-07,5.597684878521161107e-04
2.356188915690918593e-07,5.660423625764196250e-04
2.391044355288851070e-07,5.723865446487521290e-04
2.426427879400609406e-07,5.788018532399244508e-04
2.462334261561410366e-07,5.852890757283319301e-04
2.498769259315029115e-07,5.918489925968097205e-04
2.535739753547667599e-07,5.984824251144156820e-04
2.573257732168348308e-07,6.051902331730353753e-04
2.611329475139995566e-07,6.119732467118984458e-04
2.649962083425567596e-07,6.188322928379568324e-04
2.689162316947688107e-07,6.257682240819466453e-04
2.728940517785612735e-07,6.327818846450150234e-04
2.769303538070198410e-07,6.398741413607901725e-04
2.810257771291914798e-07,6.470459241008417019e-04
2.851799945302198557e-07,6.542981336736020158e-04
2.894038825943536329e-07,6.616316318301113239e-04
2.937034324310659178e-07,6.690473156444853549e-04
2.980601359571168664e-07,6.765461584869952123e-04
3.024672426943449706e-07,6.841291260398169385e-04
3.069376979840530513e-07,6.917970609846509945e-04
3.114776238173248421e-07,6.995508530792284149e-04
3.160794591345795113e-07,7.073915739243205342e-04
3.207363610234302351e-07,7.153202592012501736e-04
3.254633283841493529e-07,7.233378394755719592e-04
3.302726584043518890e-07,7.314452949370090070e-04
3.351564032917635887e-07,7.396436159724578338e-04
3.401101126174487718e-07,7.479337787713859166e-04
3.451367735535500328e-07,7.563168620158049150e-04
3.502392742460374535e-07,7.647939631541109855e-04
3.554142714600601343e-07,7.733661143325119315e-04
3.606519019685445920e-07,7.820343811314834975e-04
3.659620705011260998e-07,7.907998239690443775e-04
3.713660413822517893e-07,7.996634729667878496e-04
3.768555573224256631e-07,8.086264620142387220e-04
3.824104569291635986e-07,8.176899914380193800e-04
3.880390006439138622e-07,8.268551594676607939e-04
3.937653303994860018e-07,8.361230261575518501e-04
3.995854202340644285e-07,8.454947568197431797e-04
4.054769018379255266e-07,8.549715599986964457e-04
4.114434096917198363e-07,8.645546089120233592e-04
4.175111771943971508e-07,8.742450775033911315e-04
4.236812602292391016e-07,8.840441695319841081e-04
4.299297402457262653e-07,8.939531257172269501e-04
4.362549216431713496e-07,9.039731800776757255e-04
4.426843625587387042e-07,9.141055460676481481e-04
4.492248801022026403e-07,9.243514723187710221e-04
4.558524209292939145e-07,9.347122954914684027e-04
4.625618413849990155e-07,9.451893416803992852e-04
4.693659941302295690e-07,9.557837353614416411e-04
4.762670952539140735e-07,9.664966568467522933e-04
4.832711824469666455e-07,9.773298608393820707e-04
4.903828229518906968e-07,9.882849922737198690e-04
4.975996479216904301e-07,9.993628425826422794e-04
5.049214074850436427e-07,1.010564358906604560e-03
5.123505888418717314e-07,1.021891535782609283e-03
5.198888497146119313e-07,1.033346340566407631e-03
5.275376413591485243e-07,1.044929509172206998e-03
5.352983777402079291e-07,1.056641812913301434e-03
5.431728814590267760e-07,1.068485174708505353e-03
5.511631265875326287e-07,1.080461347004645078e-03
5.592706281185155327e-07,1.092571936914819896e-03
5.674973277443809295e-07,1.104819062065225295e-03
5.758446336663376035e-07,1.117203750743103741e-03
5.843140544989868025e-07,1.129726471424149017e-03
5.929073708902819421e-07,1.142389204656495908e-03
6.016299758429338206e-07,1.155194343157554251e-03
6.104790948250615415e-07,1.168143247065853195e-03
6.194317683884910158e-07,1.181236960524265382e-03
6.284966988981396158e-07,1.194477232787836962e-03
6.377207965154632744e-07,1.207866268586872075e-03
6.471018011561406631e-07,1.221405685202805796e-03
6.566180457986928976e-07,1.235096883283625041e-03
6.662719076255834150e-07,1.248941573573358020e-03
6.760675406657295301e-07,1.262941544790997100e-03
6.860066556051592769e-07,1.277098570089794764e-03
6.960924301144604706e-07,1.291413891896731536e-03
7.063287005370945343e-07,1.305889117984551781e-03
7.166997167245960098e-07,1.320526910298178234e-03
7.272006797603695404e-07,1.335329298460728687e-03
7.378489661742113979e-07,1.350297794272438271e-03
7.486445353261607287e-07,1.365434238848460763e-03
7.596141824526142658e-07,1.380740380252107238e-03
7.707813384303039144e-07,1.396218142610786096e-03
7.821061658524494237e-07,1.411869094270190019e-03
7.935598920580088384e-07,1.427694693404580901e-03
8.051851429438907733e-07,1.443697829971096920e-03
8.170180025105422779e-07,1.459881298908529334e-03
8.290238102288087965e-07,1.476246404861710848e-03
8.411725934652628005e-07,1.492794687020781606e-03
8.534855587285878650e-07,1.509528411364679948e-03
8.659754523417222562e-07,1.526449698159109769e-03
8.786458504739702330e-07,1.543560671893084817e-03
8.915079585434779627e-07,1.560863566964852895e-03
9.045641872039464649e-07,1.578360446409705648e-03
9.178251002096005463e-07,1.596053264471428970e-03
9.312889121529591093e-07,1.613944359523559980e-03
9.449534697474385339e-07,1.632036373942999516e-03
9.588142738154941351e-07,1.650331415873659835e-03
9.728220121792328513e-07,1.668831309419964654e-03
9.869928090045603173e-07,1.687538446859617163e-03
1.001412141249846294e-06,1.706455575505754331e-03
1.016076171138395188e-06,1.725585001723574374e-03
1.030968113523604015e-06,1.744928660220913721e-03
1.046092421557575279e-06,1.764488951590591301e-03
1.061401519294587914e-06,1.784268752255156482e-03
1.076890566080518626e-06,1.804270554183718192e-03
1.092625537243805643e-06,1.824496683571459957e-03
1.108618977681109336e-06,1.844949681410564066e-03
1.124848518975587814e-06,1.865631763700650435e-03
1.141318852833659538e-06,1.886545354389147907e-03
1.158000272597265272e-06,1.907693494705546729e-03
1.174869057547577636e-06,1.929078950519645935e-03
1.192002897160221583e-06,1.950704247215278783e-03
1.209443063788733419e-06,1.972572116319331464e-03
1.227148443946070730e-06,1.994685010588925951e-03
1.245113609916129950e-06,2.017045350504596997e-03
1.263319509581322713e-06,2.039656513985550670e-03
1.281734067416219456e-06,2.062521913483935949e-03
1.300402219415943338e-06,2.085643694480962627e-03
1.319355696809271194e-06,2.109024011996040587e-03
1.338601655012864687e-06,2.132666373359108029e-03
1.358180187225128221e-06,2.156574342496677364e-03
1.378052837439401414e-06,2.180750582467030733e-03
1.398147427040605059e-06,2.205197847084635829e-03
1.418504635309626152e-06,2.229919238545635413e-03
1.439181539649120071e-06,2.254917816729850363e-03
1.460165494210722519e-06,2.280196686795553547e-03
1.481435081121232868e-06,2.305759004033806816e-03
1.503008826878057527e-06,2.331607900411769314e-03
1.524967148905041000e-06,2.357746302270247001e-03
1.547290480345063410e-06,2.384177540894360028e-03
1.569819638650218351e-06,2.410905463973271774e-03
1.592576181347063810e-06,2.437933347466021000e-03
1.615781941529532686e-06,2.465264302340288219e-03
1.639442598894204076e-06,2.492901735919495106e-03
1.663338933649834900e-06,2.520848844957926990e-03
1.687448667538192844e-06,2.549109058746457275e-03
1.712004423812361911e-06,2.577686250002045147e-03
1.737055811035647557e-06,2.606584033672352130e-03
1.762440858869198357e-06,2.635805762073094478e-03
1.788134962126095954e-06,2.665354934337975032e-03
1.814151641665892145e-06,2.695235811885020837e-03
1.840472963580447608e-06,2.725452474518228266e-03
1.867181372515102409e-06,2.756007744792845441e-03
1.894316904149152050e-06,2.786904916824791637e-03
1.921860084912174670e-06,2.818148508226132106e-03
1.949810374552322333e-06,2.849742777569910530e-03
1.978177754965014844e-06,2.881691258482140233e-03
2.006969224613271940e-06,2.913997625192603618e-03
2.036190610726758623e-06,2.946666214998862159e-03
2.065865341097049590e-06,2.979701312236244203e-03
2.095953637371829447e-06,3.013107018953645189e-03
2.126371146645414783e-06,3.046887716578006427e-03
2.157206486847768056e-06,3.081047300126525581e-03
2.188610962364050371e-06,3.115589431271979706e-03
2.220506556408814334e-06,3.150518691367055341e-03
2.252754212248438765e-06,3.185839830974333386e-03
2.285412199366460822e-06,3.221557133062485402e-03
2.318579136664865637e-06,3.257675006056769910e-03
2.352239549267912607e-06,3.294197893808940934e-03
2.386368165978549808e-06,3.331129963909169444e-03
2.420975932187491726e-06,3.368475924389869453e-03
2.456086080694495429e-06,3.406241264665264053e-03
2.491704011683629329e-06,3.444430596743837131e-03
2.527855660291329000e-06,3.483047768714781899e-03
2.564547937887197455e-06,3.522097577928409197e-03
2.601755706328937476e-06,3.561585504712679994e-03
2.639482038831323189e-06,3.601516519799466409e-03
2.677754072627106620e-06,3.641895030714197273e-03
2.716577968057344214e-06,3.682725918705106322e-03
2.755979561098889225e-06,3.724014862577419965e-03
2.795975839361096201e-06,3.765767146137955195e-03
2.836541267071430028e-06,3.807987692814636047e-03
2.877682895202253988e-06,3.850681680886712793e-03
2.919362944903051679e-06,3.893854518265007711e-03
2.961526488235081172e-06,3.937511636433355111e-03
3.004337666878670711e-06,3.981658321655643859e-03
3.047917895515079338e-06,4.026300012994511734e-03
3.092154109208828443e-06,4.071442193610727914e-03
3.137001164480279308e-06,4.117090303969138387e-03
3.182451390806698170e-06,4.163250306028809349e-03
3.228441160529753988e-06,4.209928234632467903e-03
3.275064869862612139e-06,4.257129739591483664e-03
3.322436465538007143e-06,4.304860613866017677e-03
3.370524483184109114e-06,4.353126795331016020e-03
3.419335238222217137e-06,4.401934254610147777e-03
3.468851119879940361e-06,4.451289038778580807e-03
3.518977081563765941e-06,4.501197166841507807e-03
3.569784421371758767e-06,4.551664926757806318e-03
3.621471885538848424e-06,4.602698909812165395e-03
3.673984069281219191e-06,4.654305313399331734e-03
3.727120698833708884e-06,4.706489920393516942e-03
3.780925123447382744e-06,4.759259368028827090e-03
3.835519753814490716e-06,4.812621092893980268e-03
3.890905939493047645e-06,4.866581664892694753e-03
3.947118852546835221e-06,4.921147516159751940e-03
4.004169283039386385e-06,4.976325449723993481e-03
4.062017408743439833e-06,5.032121851433917804e-03
4.120667684322303106e-06,5.088543575189186270e-03
4.180170296647515234e-06,5.145598316864941763e-03
4.240552124859328557e-06,5.203293302107953565e-03
4.301703288249843275e-06,5.261635228574162819e-03
4.363567145786436809e-06,5.320631233379788730e-03
4.426397331530259821e-06,5.380288858008358370e-03
4.490300801461429524e-06,5.440615537446738363e-03
4.555150648467949854e-06,5.501618867763763410e-03
4.620940824272487908e-06,5.563306553318591967e-03
4.687602724902106979e-06,5.625685982172700002e-03
4.755026750218739534e-06,5.688764584013203916e-03
4.823440779434264546e-06,5.752550822599755177e-03
4.893066201515928936e-06,5.817053314595844148e-03
4.963693403366480990e-06,5.882279222496046567e-03
5.035130517538399478e-06,5.948235746375314485e-03
5.107523436840145413e-06,6.014931784470823641e-03
5.180961778004152238e-06,6.082376355297752606e-03
5.255493320194517971e-06,6.150577437436091643e-03
5.331307208879819888e-06,6.219543009059386174e-03
5.408282453614486130e-06,6.289281961564093838e-03
5.486146385920890723e-06,6.359803578839526468e-03
5.565009315145965049e-06,6.431116398530062860e-03
5.645037762144419678e-06,6.503228849053214675e-03
5.726218360867522693e-06,6.576149998363921799e-03
5.808565601209086493e-06,6.649889072753326774e-03
5.892093275846776452e-06,6.724455236568601356e-03
5.976821465892512198e-06,6.799857962969547281e-03
6.062764171822617590e-06,6.876106595221271461e-03
6.149941345905865877e-06,6.953210013640333254e-03
6.238367337110672323e-06,7.031177786888385614e-03
6.328064141619313930e-06,7.110020155951362816e-03
6.419046640788662707e-06,7.189746943715759515e-03
6.511345182567886909e-06,7.270368052166114453e-03
6.604997316659955850e-06,7.351893507384727952e-03
