Pressure [MeV/fm^3],Energy Density [MeV/fm^3]
1.690162894751065846e-12,9.627970288678968673e-06
1.725777226361820559e-12,9.749203082304122665e-06
1.762142860905302447e-12,9.871962406609059772e-06
1.799274521947535370e-12,9.996267483259146559e-06
1.837184606845686855e-12,1.012213777595076267e-05
1.875888250492194877e-12,1.024959299346491053e-05
1.915407491530098643e-12,1.037865309275814016e-05
1.955764788748174827e-12,1.050933828207973213e-05
1.996974888484055048e-12,1.064166902412615834e-05
2.039049313824738927e-12,1.077566603925018829e-05
2.082007954950231638e-12,1.091135030872032782e-05
2.125875421713995542e-12,1.104874307800151658e-05
2.170673530998974411e-12,1.118786586007160594e-05
2.216415833737795551e-12,1.132874043878197065e-05
2.263118799420965360e-12,1.147138887228412307e-05
2.310806302616702877e-12,1.161583349649127931e-05
2.359504050534759855e-12,1.176209692856684576e-05
2.409232256313266911e-12,1.191020207045383433e-05
2.460005991721493882e-12,1.206017211246093734e-05
2.511846969164598142e-12,1.221203053691423056e-05
2.564782282566945657e-12,1.236580112183219334e-05
2.618838118184320847e-12,1.252150794463730199e-05
2.674033127705532748e-12,1.267917538591410488e-05
2.730385697445880316e-12,1.283882813324018137e-05
2.787923243319242216e-12,1.300049118506687577e-05
2.846676952927871209e-12,1.316418985462474941e-05
2.906673119647041585e-12,1.332994977387312080e-05
2.967928840586140579e-12,1.349779689750751402e-05
3.030468221936800645e-12,1.366775750704788356e-05
3.094325655132470026e-12,1.383985821495743742e-05
3.159536197072416277e-12,1.401412596879658152e-05
3.226123919285188714e-12,1.419058805542664933e-05
3.294108025342619641e-12,1.436927210529056251e-05
3.363520413720517541e-12,1.455020609676347159e-05
3.434400337090644329e-12,1.473341836052633944e-05
3.506782751053706628e-12,1.491893758398559998e-05
3.580689805205600721e-12,1.510679281575235311e-05
3.656148153770307477e-12,1.529701347021598004e-05
3.733195920792705310e-12,1.548962933216228727e-05
3.811874095175568776e-12,1.568467056142295847e-05
3.892215135531822454e-12,1.588216769757874562e-05
3.974242875028422500e-12,1.608215166474149513e-05
4.057992489167008022e-12,1.628465377642913416e-05
4.143508911836667145e-12,1.648970574046594259e-05
4.230835360319724695e-12,1.669733966392875446e-05
4.320001016763895074e-12,1.690758805815509110e-05
4.411034271579231817e-12,1.712048384385521165e-05
4.503980914215878018e-12,1.733606035629152640e-05
4.598894023337320427e-12,1.755435135048402081e-05
4.695817056111697053e-12,1.777539100647284416e-05
4.794776792938735606e-12,1.799921393466045140e-05
4.895812129712008441e-12,1.822585518127017154e-05
4.998978122491316600e-12,1.845535023383969059e-05
5.104330920488417645e-12,1.868773502675664228e-05
5.211909935077281001e-12,1.892304594685985738e-05
5.321747784355838380e-12,1.916131983914968375e-05
5.433894819388625173e-12,1.940259401259650118e-05
5.548411344629606770e-12,1.964690624597082892e-05
5.665352088925626279e-12,1.989429479373237974e-05
5.784753874067887184e-12,2.014479839199932143e-05
5.906659806527238272e-12,2.039845626465423234e-05
6.031131888432606003e-12,2.065530812950588322e-05
6.158236950474731067e-12,2.091539420448536115e-05
6.288027274459095226e-12,2.117875521391234474e-05
6.420539394233931634e-12,2.144543239487174438e-05
6.555830676003583272e-12,2.171546750372383480e-05
6.693977246846090526e-12,2.198890282263797922e-05
6.835051770643548954e-12,2.226578116618314885e-05
6.979100529727652966e-12,2.254614588800072975e-05
7.126169060117784036e-12,2.283004088762731232e-05
7.276330915989447759e-12,2.311751061740865531e-05
7.429671071228799982e-12,2.340860008943695340e-05
7.586259676059261161e-12,2.370335488256210160e-05
7.746142208653999119e-12,2.400182114951244377e-05
7.909381756672526899e-12,2.430404562418490735e-05
8.076063313904731723e-12,2.461007562897236689e-05
8.246273554977528428e-12,2.491995908213930883e-05
8.420076596892052076e-12,2.523374450528383936e-05
8.597525939070134304e-12,2.555148103095599026e-05
8.778703105403641682e-12,2.587321841041419950e-05
8.963706356684106746e-12,2.619900702139660810e-05
9.152624543849225553e-12,2.652889787596683500e-05
9.345515109507681356e-12,2.686294262846820589e-05
9.542446168267760576e-12,2.720119358367700446e-05
9.743521865786285511e-12,2.754370370502508871e-05
9.948855528874248549e-12,2.789052662285597194e-05
1.015853239759685746e-11,2.824171664277213255e-05
1.037260997929637827e-11,2.859732875413792036e-05
1.059118077256927944e-11,2.895741863877610155e-05
1.081436675064064960e-11,2.932204267967939256e-05
1.104228461502073590e-11,2.969125796979027847e-05
1.127501095948490303e-11,3.006512232089006138e-05
1.151262212736794333e-11,3.044369427270683965e-05
1.175523306486855811e-11,3.082703310214658817e-05
1.200297423403976185e-11,3.121519883253769963e-05
1.225595661247532017e-11,3.160825224297002088e-05
1.251425589402278652e-11,3.200625487778585365e-05
1.277797395819727605e-11,3.240926905631883110e-05
1.304724919879938905e-11,3.281735788266779711e-05
1.332222282607720420e-11,3.323058525552286278e-05
1.360299726490899686e-11,3.364901587810455207e-05
1.388965464874926995e-11,3.407271526832804126e-05
1.418232965593872101e-11,3.450174976916454712e-05
1.448118932721419006e-11,3.493618655899898804e-05
1.478638205712720325e-11,3.537609366208043264e-05
1.509799797733712464e-11,3.582153995911945091e-05
1.541614678526487162e-11,3.627259519817857271e-05
1.574099558397470522e-11,3.672933000564700899e-05
1.607272595934256962e-11,3.719181589723950343e-05
1.641147625734400242e-11,3.766012528911288768e-05
1.675734448197199996e-11,3.813433150920451182e-05
1.711047849779440807e-11,3.861450880885336024e-05
1.747106610150915585e-11,3.910073237441520432e-05
1.783928854060240226e-11,3.959307833895664452e-05
1.821527204716396822e-11,4.009162379409456415e-05
1.859914070445036483e-11,4.059644680215671037e-05
1.899108104484403067e-11,4.110762640850958112e-05
1.939130572964299109e-11,4.162524265387582915e-05
1.979999441200579518e-11,4.214937658677142974e-05
2.021726366059859523e-11,4.268011027615422042e-05
2.064327710531438099e-11,4.321752682443903655e-05
2.107826876739137918e-11,4.376171038053617754e-05
2.152247773293073800e-11,4.431274615293900106e-05
2.197606867910430634e-11,4.487072042295878568e-05
2.243917212684254321e-11,4.543572055828761218e-05
2.291200481184538031e-11,4.600783502684479762e-05
2.339483400880152309e-11,4.658715341058059141e-05
2.388789836009795705e-11,4.717376641939185605e-05
2.439134920931530356e-11,4.776776590523787116e-05
2.490536757785375044e-11,4.836924487669269157e-05
2.543021277578774467e-11,4.897829751359513778e-05
2.596616409178039434e-11,4.959501918169896263e-05
2.651344329304593909e-11,5.021950644747406086e-05
2.707221262606621977e-11,5.085185709322543804e-05
2.764271111430248804e-11,5.149217013262906195e-05
2.822524484349489230e-11,5.214054582621750869e-05
2.882010879008126615e-11,5.279708569695241267e-05
2.942750249407985361e-11,5.346189254598931507e-05
3.004761881767050777e-11,5.413507046891810441e-05
3.068076885272441031e-11,5.481672487223225078e-05
3.132731389062003071e-11,5.550696248973748746e-05
3.198755076011524333e-11,5.620589139910965164e-05
3.266166230949099291e-11,5.691362103874875628e-05
3.334991257830653685e-11,5.763026222518156656e-05
3.405267619264491849e-11,5.835592717045642440e-05
3.477033604731917710e-11,5.909072949957023982e-05
3.550316163968588625e-11,5.983478426808634253e-05
3.625137468426874327e-11,6.058820798023502042e-05
3.701531742621468158e-11,6.135111860742516708e-05
3.779540053441853189e-11,6.212363560663779877e-05
3.859199753278980674e-11,6.290587993895173564e-05
3.940536000550272817e-11,6.369797408834189877e-05
4.023578077592587974e-11,6.450004208113193683e-05
4.108368127795099432e-11,6.531220950555441233e-05
4.194951654066986312e-11,6.613460353126032851e-05
4.283364375928289930e-11,6.696735292901997733e-05
4.373631163244808448e-11,6.781058809088260817e-05
4.465790977709766881e-11,6.866444105095644999e-05
4.559895686676171006e-11,6.952904550605483447e-05
4.655994908252792115e-11,7.040453683642603313e-05
4.754120287112414372e-11,7.129105212673818011e-05
4.854302733332899455e-11,7.218873018777529607e-05
4.956592227009399401e-11,7.309771157844890976e-05
5.061046618561923680e-11,7.401813862765146740e-05
5.167713816237035056e-11,7.495015545629195579e-05
5.276624836473222556e-11,7.589390799975055603e-05
5.387822521692873145e-11,7.684954403116040791e-05
5.501364734432647121e-11,7.781721318461655662e-05
5.617310592417471973e-11,7.879706697837423365e-05
5.735703906415067364e-11,7.978925883829367162e-05
5.856581028650581433e-11,8.079394412199973369e-05
5.979997374368596463e-11,8.181128014364234000e-05
6.106019880908896241e-11,8.284142619840300108e-05
6.234709205160801632e-11,8.388454358714950751e-05
6.366104577922373610e-11,8.494079564146384258e-05
6.500252219512316004e-11,8.601034774965631241e-05
6.637222960584525279e-11,8.709336738289027817e-05
6.777094045444791239e-11,8.819002412115465282e-05
6.919923743658132266e-11,8.930048967947522049e-05
7.065751126701255360e-11,9.042493793479429865e-05
7.214639034920684659e-11,9.156354495378574165e-05
7.366670657878725823e-11,9.271648902037979802e-05
7.521925749657693366e-11,9.388395066334702984e-05
7.680456646866717889e-11,9.506611268421893100e-05
7.842315206816643831e-11,9.626316018628599852e-05
8.007579538026204151e-11,9.747528060402850894e-05
8.176338412843730225e-11,9.870266373221481054e-05
8.348667579030027440e-11,9.994550175521617146e-05
8.524618646145891067e-11,1.012039892769177899e-04
8.704260805801331431e-11,1.024783233518838466e-04
8.887688396056217907e-11,1.037687035163263035e-04
9.074997865567095221e-11,1.050753318189773304e-04
9.266259245982554401e-11,1.063984128522752956e-04
9.461528404237770052e-11,1.077381537846161221e-04
9.660896780372962330e-11,1.090947643934960599e-04
9.864477944139872975e-11,1.104684570981566752e-04
1.007237311488023128e-10,1.118594469923787129e-04
1.028464397085121493e-10,1.132679518777889640e-04
1.050136497901615021e-10,1.146941922986766262e-04
1.072264979165823334e-10,1.161383915768965369e-04
1.094862217230237077e-10,1.176007758464327115e-04
1.117937668751846551e-10,1.190815740882536543e-04
1.141498002912156835e-10,1.205810181661525995e-04
1.165553267091608213e-10,1.220993428640050073e-04
1.190116252556898886e-10,1.236367859224620045e-04
1.215199328201107228e-10,1.251935880756405173e-04
1.240811121460449104e-10,1.267699930882584293e-04
1.266960065184302475e-10,1.283662477944054752e-04
1.293658835989227040e-10,1.299826021369140906e-04
1.320921908670569902e-10,1.316193092060942156e-04
1.348761548595521126e-10,1.332766252787131545e-04
1.377185712042974808e-10,1.349548098578282963e-04
1.406205505860054508e-10,1.366541257145391169e-04
1.435836858442854519e-10,1.383748389293210860e-04
1.466096079543868617e-10,1.401172189330875746e-04
1.496994418140020141e-10,1.418815385486458158e-04
1.528540674659489483e-10,1.436680740337639630e-04
1.560749636306870239e-10,1.454771051255678948e-04
1.593639666033747822e-10,1.473089150840173160e-04
1.627227153030713815e-10,1.491637907355051313e-04
1.661522313261074178e-10,1.510420225171649395e-04
1.696537375199088215e-10,1.529439045234972836e-04
1.732290177928025473e-10,1.548697345530251196e-04
1.768800017796924916e-10,1.568198141542677024e-04
1.806082111104182123e-10,1.587944486720594100e-04
1.844147537094017870e-10,1.607939472953374450e-04
1.883012522581909194e-10,1.628186231070945797e-04
1.922697706478658552e-10,1.648687931332905245e-04
1.963223058020448488e-10,1.669447783916307799e-04
2.004602473504974077e-10,1.690469039409305246e-04
2.046849454875878055e-10,1.711754989329768021e-04
2.089984636228750406e-10,1.733308966652379317e-04
2.134031700696979433e-10,1.755134346324035521e-04
2.179010599753371283e-10,1.777234545781815670e-04
2.224934512085247949e-10,1.799613025483284248e-04
2.271821408221266476e-10,1.822273289466377802e-04
2.319695932789816209e-10,1.845218885901137528e-04
2.368583307177412076e-10,1.868453407635612665e-04
2.418501993716858686e-10,1.891980492746679913e-04
2.469467366525350105e-10,1.915803825115244949e-04
2.521502448890354356e-10,1.939927135021375626e-04
2.574634763104991213e-10,1.964354199723194116e-04
2.628889476820348193e-10,1.989088844036267765e-04
2.684283957144651128e-10,2.014134940922837202e-04
2.740838141433287802e-10,2.039496412116567506e-04
2.798579878144678916e-10,2.065177228746260178e-04
2.857539133623554619e-10,2.091181411947258323e-04
2.917740064321044857e-10,2.117513033476846579e-04
2.979200625085250891e-10,2.144176216351389845e-04
3.041946609576825587e-10,2.171175135516320077e-04
3.106010803150548928e-10,2.198514018498131024e-04
3.171424928474267567e-10,2.226197146052687756e-04
3.238211251489638767e-10,2.254228852821233222e-04
3.306391592242451428e-10,2.282613528024305554e-04
3.375997960142706374e-10,2.311355616167604099e-04
3.447066662639956933e-10,2.340459617727670043e-04
3.519628858449699298e-10,2.369930089839989145e-04
3.593706430915197397e-10,2.399771647004936639e-04
3.669327810550607759e-10,2.429988961838785652e-04
3.746530370133906666e-10,2.460586765810206548e-04
3.825352309951357108e-10,2.491569849965923717e-04
3.905822719011473446e-10,2.522943065662415973e-04
3.987965892848563659e-10,2.554711325334212027e-04
4.071818029861984108e-10,2.586879603291843501e-04
4.157422719380965140e-10,2.619452936492617807e-04
4.244819605260477446e-10,2.652436425310402226e-04
4.334034661072507856e-10,2.685835234319016904e-04
4.425098097561007160e-10,2.719654593129611892e-04
4.518055707865701063e-10,2.753899797224878859e-04
4.612957407172914735e-10,2.788576208771825424e-04
4.709841150681171754e-10,2.823689257438890621e-04
4.808732302829000406e-10,2.859244441245323526e-04
4.909671505428031895e-10,2.895247327460779944e-04
5.012712855822133520e-10,2.931703553474427552e-04
5.117908225065150206e-10,2.968618827655976431e-04
5.225291041296817096e-10,3.005998930226740106e-04
5.334893774498522305e-10,3.043849714188768076e-04
5.446767729881334138e-10,3.082177106271159696e-04
5.560972016748000407e-10,3.120987107841758940e-04
5.677556083998606692e-10,3.160285795820284111e-04
5.796551473806258291e-10,3.200079323617515802e-04
5.918002140166631869e-10,3.240373922144491252e-04
6.041969971534034201e-10,3.281175900796118577e-04
6.168518321565443111e-10,3.322491648414629180e-04
6.297691703648994691e-10,3.364327634260108374e-04
6.429524525157089392e-10,3.406690409037214234e-04
6.564075186405365485e-10,3.449586605967695872e-04
6.701416923198453004e-10,3.493022941815955985e-04
6.841614711098302713e-10,3.537006217909997429e-04
6.984706721993732166e-10,3.581543321181483719e-04
7.130739224540315559e-10,3.626641225290783100e-04
7.279785016592524891e-10,3.672306991744037769e-04
7.431923750865081275e-10,3.718547770972184096e-04
7.587215064652435690e-10,3.765370803413931825e-04
7.745698246597578564e-10,3.812783420647975255e-04
7.907436601395956924e-10,3.860793046604206447e-04
8.072513926653697705e-10,3.909407198722061644e-04
8.241010655302379370e-10,3.958633489092143877e-04
8.412978459770141399e-10,4.008479625610816420e-04
8.588466563888114076e-10,4.058953413226361459e-04
8.767556900250521069e-10,4.110062755209928495e-04
8.950345268887014460e-10,4.161815654366453191e-04
9.136909909436826333e-10,4.214220214244409073e-04
9.327295187096934487e-10,4.267284640384299394e-04
9.521568772823573506e-10,4.321017241678156134e-04
9.719834258386528257e-10,4.375426431683952983e-04
9.922197914903817754e-10,4.430520729902799300e-04
1.012872786272943423e-09,4.486308763063831897e-04
1.033947289174987900e-09,4.542799266497314268e-04
1.055452601509535871e-09,4.600001085579827668e-04
1.077400677220750019e-09,4.657923177097895496e-04
1.099801971975459457e-09,4.716574610599506357e-04
1.122662195328393480e-09,4.775964569772931908e-04
1.145988463491689275e-09,4.836102353961800734e-04
1.169792286099117371e-09,4.896997379663116639e-04
1.194086294495621138e-09,4.958659181957536521e-04
1.218879802218947739e-09,5.021097415941613374e-04
1.244178533486909361e-09,5.084321858236844158e-04
1.269992482789034609e-09,5.148342408625452248e-04
1.296335481580286807e-09,5.213169091593883656e-04
1.323220701395681915e-09,5.278812057843626504e-04
1.350655796431798925e-09,5.345281585818547222e-04
1.378647845383585990e-09,5.412588083379112286e-04
1.407210367199468716e-09,5.480742089514065900e-04
1.436359620245296434e-09,5.549754275946317721e-04
1.466108336114844192e-09,5.619635448731365862e-04
1.496462821598552765e-09,5.690396549914912994e-04
1.527433624650838673e-09,5.762048659371244970e-04
1.559037373942097845e-09,5.834602996560961071e-04
1.591291146502525012e-09,5.908070922220306272e-04
1.624205669467102398e-09,5.982463940057603955e-04
1.657788618203399046e-09,6.057793698591644287e-04
1.692054526060055694e-09,6.134071993105570490e-04
1.727021933965628981e-09,6.211310767458054841e-04
1.762707142201692455e-09,6.289522115868256477e-04
1.799119026405706997e-09,6.368718284740163948e-04
1.836268593605398256e-09,6.448911674708953084e-04
1.874174531379404806e-09,6.530114842653320442e-04
1.912857513682337415e-09,6.612340503587719673e-04
1.952332246993042873e-09,6.695601532551518752e-04
1.992606669120501518e-09,6.779910966619778680e-04
2.033696784625275774e-09,6.865282007120934813e-04
2.075626112015309382e-09,6.951728021693221555e-04
2.118416837756499439e-09,7.039262546278843248e-04
2.162080495985080991e-09,7.127899287138792601e-04
2.206627723922385864e-09,7.217652123107620417e-04
2.252080293214304531e-09,7.308535107905251692e-04
2.298464602992384347e-09,7.400562472263024763e-04
2.345801125016727921e-09,7.493748626029626088e-04
2.394099869878261218e-09,7.588108160368971884e-04
2.443377606143773937e-09,7.683655850255676151e-04
2.493660278256195586e-09,7.780406656827573144e-04
2.544974534980239678e-09,7.878375729614637548e-04
2.597337435921412094e-09,7.977578408772032208e-04
2.650760956310222936e-09,8.078030227544269817e-04
2.705268550739440385e-09,8.179746914916289973e-04
2.760890685230000896e-09,8.282744398016452349e-04
2.817653899672785638e-09,8.387038804467339620e-04
2.875571429321456080e-09,8.492646464794038289e-04
2.934660212503305147e-09,8.599583915197226433e-04
2.994951668883873699e-09,8.707867900262275095e-04
3.056480982530503483e-09,8.817515375456719913e-04
3.119272065086211369e-09,8.928543509613398512e-04
3.183336912518414631e-09,9.040969687609154122e-04
3.248701204473692740e-09,9.154811513385030346e-04
3.315402660321719292e-09,9.270086812685417958e-04
3.383476928368551841e-09,9.386813635681865364e-04
3.452943077934692903e-09,9.505010259622373231e-04
3.523819132584543183e-09,9.624695191876360021e-04
3.596138925456664103e-09,9.745887173066022187e-04
3.669942747929765340e-09,9.868605179875751358e-04
3.745262803067864013e-09,9.992868427818413311e-04
3.822116170900718344e-09,1.011869637414572389e-03
3.900529953309462319e-09,1.024610872124764784e-03
3.980546061835468384e-09,1.037512541980332775e-03
4.062207596031622762e-09,1.050576667171500018e-03
4.145541974025702364e-09,1.063805293303859631e-03
4.230567827592548578e-09,1.077200491728969121e-03
4.317323609464013733e-09,1.090764359905345903e-03
4.405860157680223891e-09,1.104499021716933262e-03
4.496221412216142887e-09,1.118406627781733673e-03
4.588428820108063869e-09,1.132489355768947700e-03
4.682510182943799491e-09,1.146749410775999229e-03
4.778515104083695813e-09,1.161189025693913331e-03
4.876498842745150719e-09,1.175810461536196637e-03
4.976500266030120868e-09,1.190616007764214645e-03
5.078541684131730928e-09,1.205607982644038871e-03
5.182664129198789511e-09,1.220788733658980784e-03
5.288924397407174379e-09,1.236160637874316988e-03
5.397376785136350670e-09,1.251726102281799447e-03
5.508053883833849517e-09,1.267487564147252868e-03
