Pressure [MeV/fm^3],Energy Density [MeV/fm^3]
3.032154132046691657e-11,9.576589203802854078e-07
3.099734883729642100e-11,9.714397457953878631e-07
3.168771130925759502e-11,9.854188820129687228e-07
3.239300006724198759e-11,9.995991829533537154e-07
3.311360416158581857e-11,1.013983543622826363e-06
3.384993170781674118e-11,1.028574900706399212e-06
3.460241133870435088e-11,1.043376233169238993e-06
3.537149377045481391e-11,1.058390562866875928e-06
3.615765349143239958e-11,1.073620955164332939e-06
3.696139058236892538e-11,1.089070519564314076e-06
3.778323267763790833e-11,1.104742410344594058e-06
3.862372010404191163e-11,1.120639827181176181e-06
3.948241487787291577e-11,1.136766014425124169e-06
4.035917238452716391e-11,1.153124263531250009e-06
4.125440832388550090e-11,1.169717914100721083e-06
4.216855582291442304e-11,1.186550353808740497e-06
4.310206675401596599e-11,1.203625019097861127e-06
4.405541316094543258e-11,1.220945395881397983e-06
4.502908880043268256e-11,1.238515020257093918e-06
4.602361080821581319e-11,1.256337479231203624e-06
4.703952149880517470e-11,1.274416411453145637e-06
4.807739030894734081e-11,1.292755507960892384e-06
4.913781589545241342e-11,1.311358512937263251e-06
5.022142839878795370e-11,1.330229224477293019e-06
5.132889188463167781e-11,1.349371495366839794e-06
5.246090697641675030e-11,1.368789233872620476e-06
5.361821369279898333e-11,1.388486404543845491e-06
5.480159344175617071e-11,1.408467029024200242e-06
5.601061622321763110e-11,1.428735185173677777e-06
5.724481508503776162e-11,1.449295009481143131e-06
5.850476434710396039e-11,1.470150699376356128e-06
5.979106271672674615e-11,1.491306512712828549e-06
6.110433516518747968e-11,1.512766768639334634e-06
6.244523495840014080e-11,1.534535848484127294e-06
6.381444585336829541e-11,1.556618196652053367e-06
6.521268447294072066e-11,1.579018321534771827e-06
6.664070287224562570e-11,1.601740796434271698e-06
6.809929131111837116e-11,1.624790260499896104e-06
6.958928124783544204e-11,1.648171419679090170e-06
7.111154857052979989e-11,1.671889047682077736e-06
7.266701708379699858e-11,1.695947986960691788e-06
7.425666226920976526e-11,1.720353149701578396e-06
7.588151533974643524e-11,1.745109518834005408e-06
7.754266760951186603e-11,1.770222149052502271e-06
7.923984534813459665e-11,1.795696165913330829e-06
8.097200118886959762e-11,1.821536767710238307e-06
8.273991483214823813e-11,1.847749230061289158e-06
8.454441237723972538e-11,1.874338904553169354e-06
8.638635688167071049e-11,1.901311219820856504e-06
8.826665127186419955e-11,1.928671682659843998e-06
9.018624149281882433e-11,1.956425879154659729e-06
9.214611991488175379e-11,1.984579475823927373e-06
9.414732901693579471e-11,2.013138220782236609e-06
9.619096536667102005e-11,2.042107944919078095e-06
9.827818392005269074e-11,2.071494563095131817e-06
1.004102026636318375e-10,2.101304075356168634e-06
1.025883076249827513e-10,2.131542568164857690e-06
1.048138582782968928e-10,2.162216215650763425e-06
1.070882933740237167e-10,2.193331280878835009e-06
1.094131372234295306e-10,2.224894117136676619e-06
1.117884417735280955e-10,2.256911166986963213e-06
1.142122937271196220e-10,2.289388962872400771e-06
1.166856846425049438e-10,2.322334135465339607e-06
1.192097502575616239e-10,2.355753411044628095e-06
1.217856778040779290e-10,2.389653612734970952e-06
1.244147101219264012e-10,2.424041661905483974e-06
1.270981501128168737e-10,2.458924579588770258e-06
1.298373655593158635e-10,2.494309487920858001e-06
1.326337943366196942e-10,2.530203611602318361e-06
1.354889500464929951e-10,2.566614279380912347e-06
1.384044281048332312e-10,2.603548925556103449e-06
1.413819123165084339e-10,2.641015091505803608e-06
1.444231819734453751e-10,2.679020427235695577e-06
1.475301195144308132e-10,2.717572692951517928e-06
1.507047187877353969e-10,2.756679760654677762e-06
1.539490939604927967e-10,2.796349615761586701e-06
1.572638703125605662e-10,2.836590356408740234e-06
1.606459573973788794e-10,2.877410191892760431e-06
1.640965050131277435e-10,2.918817455840600804e-06
1.676170679128773305e-10,2.960820602367044019e-06
1.712092718819690967e-10,3.003428207317736725e-06
1.748748194798402445e-10,3.046648970027832394e-06
1.786154962580218900e-10,3.090491715106494073e-06
1.824331774903930720e-10,3.134965394247703444e-06
1.863298354543021258e-10,3.180079088067776829e-06
1.903075473038721384e-10,3.225842007970017592e-06
1.943685035796890184e-10,3.272263498036973766e-06
1.985150174021417024e-10,3.319353036950726544e-06
2.027495343989616432e-10,3.367120239941676343e-06
2.070746434210017545e-10,3.415574860766315610e-06
2.114930881040159299e-10,3.464726793714450840e-06
2.160077793381687306e-10,3.514586075646383313e-06
2.206202215820361527e-10,3.565162885710071656e-06
2.253257082262610293e-10,3.616467540330121357e-06
2.301253806648242190e-10,3.668510513189383888e-06
2.350213759829588896e-10,3.721302430149627500e-06
2.400159322503088013e-10,3.774854070093545574e-06
2.451113968539950150e-10,3.829176367137324413e-06
2.503102355255330716e-10,3.884280412875937004e-06
2.556150421141700135e-10,3.940177458661664186e-06
2.610285491629033326e-10,3.996878917916425568e-06
2.665536393473767861e-10,4.054396368478454232e-06
2.721933578420438187e-10,4.112741554983900123e-06
2.779509256824634431e-10,4.171926391283952066e-06
2.838297541973627519e-10,4.231962962898062867e-06
2.898334605891854245e-10,4.292863529503915317e-06
2.959658847472628054e-10,4.354640527464745738e-06
3.022311073835198600e-10,4.417306572394669661e-06
3.086320654737808737e-10,4.480874459582749718e-06
3.151622031103291812e-10,4.545357153674768079e-06
3.218222623352958069e-10,4.610767817420755579e-06
3.286151416989560934e-10,4.677119806333729002e-06
3.355438732909723790e-10,4.744426668270615609e-06
3.426116337196283913e-10,4.812702146214782619e-06
3.498217560081549080e-10,4.881960181099789259e-06
3.571777424778259504e-10,4.952214914675092343e-06
3.646832786924007534e-10,5.023480692414386415e-06
3.723422485437094702e-10,5.095772066467284868e-06
3.801587505637583011e-10,5.169103798655099302e-06
3.881371155546644463e-10,5.243490863511448934e-06
3.962819256340732761e-10,5.318948451368478508e-06
4.045980348004554602e-10,5.395491971489470739e-06
4.130905911298891251e-10,5.473137055248674907e-06
4.217650607235967646e-10,5.551899559359164773e-06
4.306261910983771801e-10,5.631795567451937531e-06
4.396654160694764851e-10,5.712841373232139344e-06
4.488823968609423693e-10,5.795053518228724258e-06
4.582810991160153775e-10,5.878448788903224971e-06
4.678656783856245271e-10,5.963044213500936656e-06
4.776404960893402559e-10,6.048857065551465263e-06
4.876101368145882978e-10,6.135904867421393768e-06
4.977794270557697813e-10,6.224205393919972679e-06
5.081534555020661992e-10,6.313776675958718261e-06
5.187375949903286540e-10,6.404637004265861229e-06
5.295375262475665699e-10,6.496804933156575095e-06
5.405592635562129813e-10,6.590299284359985378e-06
5.518091824845681268e-10,6.685139150903921043e-06
5.632940498346717980e-10,6.781343901058466968e-06
5.750210559703374430e-10,6.878933182339359295e-06
5.869978496992594391e-10,6.977926925572293448e-06
5.992319450174168951e-10,7.078345347985640486e-06
6.117127817286756763e-10,7.180208928004729488e-06
6.244374777795819277e-10,7.283538451747646816e-06
6.374114097880528030e-10,7.388355018099104919e-06
6.506402088799868459e-10,7.494680029878432333e-06
6.641297820951347678e-10,7.602535198243656273e-06
6.778863355922550456e-10,7.711942547161499626e-06
6.919163997904361858e-10,7.822924417944392657e-06
7.062268565930907172e-10,7.935503473855719990e-06
7.208249688513913849e-10,8.049702704784445523e-06
7.357184122348654831e-10,8.165545431990353623e-06
7.509153096885430511e-10,8.283055312921239007e-06
7.664242686684851168e-10,8.402256346103205716e-06
7.822544213608026892e-10,8.523172876105525328e-06
7.984154681034091718e-10,8.645829598581387625e-06
8.149177242448218543e-10,8.770251565385932854e-06
8.317719889515579689e-10,8.896464189461924209e-06
8.489668296996387858e-10,9.024493211158319557e-06
8.664947006412240231e-10,9.154364748253896003e-06
8.843629130685782405e-10,9.286105320025347189e-06
9.025791300566350417e-10,9.419741827814755061e-06
9.211513963829538349e-10,9.555301560570762524e-06
9.400881709689619784e-10,9.692812200473055167e-06
9.593983620343416841e-10,9.832301828641690282e-06
9.790913651699028543e-10,9.973798930932680946e-06
9.991771045486791782e-10,1.011733240382146993e-05
1.019666077510314535e-09,1.026293156037583673e-05
1.040569402770171696e-09,1.041062613631988776e-05
1.061898872522024424e-09,1.056044629619079666e-05
1.083667008721804701e-09,1.071242263959007511e-05
1.105887123859666289e-09,1.086658620753107855e-05
1.128573386548772494e-09,1.102296848888467615e-05
1.151740892281695653e-09,1.118160142692490122e-05
1.175379488860051160e-09,1.134251737983658890e-05
1.199473037634586351e-09,1.150574916142090310e-05
1.224031438816008790e-09,1.167133010401166142e-05
1.249065076133756072e-09,1.183929402024575835e-05
1.274584849253139300e-09,1.200967521002138509e-05
1.300602217747028639e-09,1.218250846757601475e-05
1.327129248751405106e-09,1.235782908867171506e-05
1.354178668583824855e-09,1.253567287788975716e-05
1.381763918623389772e-09,1.271607615603647875e-05
1.409899215771698692e-09,1.289907576766253791e-05
1.438599617836462102e-09,1.308470908869763094e-05
1.467881094203194617e-09,1.327301403420286661e-05
1.497760602185664079e-09,1.346402906624307680e-05
1.528256169472727319e-09,1.365779320188140652e-05
1.559386983117880424e-09,1.385434602129850927e-05
1.591173485548467183e-09,1.405372767603892946e-05
1.623609750001980956e-09,1.425597884693044292e-05
1.656667195926142271e-09,1.446114075931039741e-05
1.690358587163959848e-09,1.466925530789004451e-05
1.724697964359794655e-09,1.488036499229074483e-05
1.759700062862450333e-09,1.509451292465648690e-05
1.795380372072031033e-09,1.531174283855924254e-05
1.831755199767927873e-09,1.553209909804007972e-05
1.868841741795607099e-09,1.575562670678845519e-05
1.906658157516355245e-09,1.598237131746235007e-05
1.945223651452384352e-09,1.621237924115185561e-05
1.984558561589815718e-09,1.644569745698900247e-05
2.024684454834151296e-09,1.668237362190665439e-05
2.065624230147105564e-09,1.692245608054938991e-05
2.107402229930114187e-09,1.716599387533935736e-05
2.150044360258774909e-09,1.741303675670033521e-05
2.193578220613848374e-09,1.766363519344304041e-05
2.238004973469840626e-09,1.791784032992628799e-05
2.283279253256235532e-09,1.817570395908216300e-05
2.329416159821144384e-09,1.843727873512241924e-05
2.376434692884773194e-09,1.870261807702265275e-05
2.424354796317592182e-09,1.897177617383403528e-05
2.473197439200361060e-09,1.924480799589749520e-05
2.522984703698907843e-09,1.952176930623027973e-05
2.573739880270597795e-09,1.980271667208831045e-05
2.625487570755669948e-09,2.008770747670744232e-05
2.678253799945350143e-09,2.037679993122751574e-05
2.732066136259779845e-09,2.067005308680254250e-05
2.786953822212830391e-09,2.096752684690085403e-05
2.842947915387694908e-09,2.126928197979911181e-05
2.900081440697118851e-09,2.157538013127417118e-05
2.958389554755326943e-09,2.188588383749691155e-05
3.017909723245490249e-09,2.220085653813235314e-05
3.078654384392649982e-09,2.252036253544402539e-05
3.140556500460457409e-09,2.284446690036137070e-05
3.203631710119968069e-09,2.317323580515522776e-05
3.267905692726077696e-09,2.350673639374304690e-05
3.333405402154260127e-09,2.384503677811842260e-05
3.400159176479099560e-09,2.418820605246346876e-05
3.468196856884866505e-09,2.453631430747939645e-05
3.537549916508830981e-09,2.488943264493952590e-05
3.608251599967151745e-09,2.524763319246915082e-05
3.680337074365583519e-09,2.561098911855685619e-05
3.753843592653161964e-09,2.597957464780191773e-05
3.828810670236585672e-09,2.635346507640261776e-05
3.905280275836572903e-09,2.673273678789059375e-05
3.983297037635208641e-09,2.711746726911644050e-05
4.062908465835392107e-09,2.750773512649175325e-05
4.144165192830521529e-09,2.790362010249355788e-05
4.227096414957950550e-09,2.830520304232457570e-05
4.311609625579398709e-09,2.871256570847730802e-05
4.397717099048990341e-09,2.912579125516284804e-05
4.485453500442259491e-09,2.954496407824479121e-05
4.574855206230339862e-09,2.997016979065353812e-05
4.665960451637375096e-09,3.040149524015440638e-05
4.758809490414608186e-09,3.083902852739265450e-05
4.853444767974113594e-09,3.128285902422090658e-05
4.949911108891304290e-09,3.173307739231479518e-05
5.048255919855971436e-09,3.218977560208274825e-05
5.148529409226763829e-09,3.265304695187604248e-05
5.250784824424347460e-09,3.312298608750558756e-05
5.355078708483940811e-09,3.359968902207186877e-05
5.461471177179165265e-09,3.408325315611514922e-05
5.570026218226253618e-09,3.457377729809276925e-05
5.680812014181282202e-09,3.507136168519108470e-05
5.793881274882930210e-09,3.557610796249891899e-05
5.909114138467030336e-09,3.608811887476392523e-05
6.026512126340642598e-09,3.660749890452509776e-05
6.146121936296492603e-09,3.713435413281716721e-05
6.267992548479236271e-09,3.766879217075896804e-05
6.392175421734372352e-09,3.821092218192200662e-05
6.518724706521871888e-09,3.876085490505026333e-05
6.647697475653655625e-09,3.931870267713828281e-05
6.779153974202509102e-09,3.988457945687525028e-05
6.913157890024234375e-09,4.045860084846258220e-05
7.049776646435488692e-09,4.104088412581329167e-05
7.189081718696814131e-09,4.163154825714116512e-05
7.331148976064846503e-09,4.223071392994874254e-05
7.476059051299317146e-09,4.283850357642276786e-05
7.623897739640486597e-09,4.345504139924656937e-05
7.774756429410908191e-09,4.408045339783903978e-05
7.928719012026859505e-09,4.471486736579493654e-05
8.085638090454594662e-09,4.535841243459129603e-05
8.245490905340449785e-09,4.601121986824586031e-05
8.408340562981848747e-09,4.667342300587835679e-05
8.574253274106213614e-09,4.734515711030085164e-05
8.743298622074676348e-09,4.802655939618676560e-05
8.915549853730655538e-09,4.871776905868588988e-05
9.091084194614662642e-09,4.941892730249508543e-05
9.269983190387387931e-09,5.013017737139408470e-05
9.452333076432191182e-09,5.085166457825695310e-05
9.638225177745346519e-09,5.158353633554950353e-05
9.827756341369020121e-09,5.232594218632360749e-05
1.002102940377817753e-08,5.307903383571978696e-05
1.021815369579911721e-08,5.384296518299012843e-05
1.041924558781471246e-08,5.461789235405336407e-05
1.062442907820075098e-08,5.540397373459534042e-05
1.083383011037722401e-08,5.620136998962289594e-05
1.104728354858693214e-08,5.701024344320288411e-05
1.126471967204191099e-08,5.783075897718782709e-05
1.148622323939090930e-08,5.866308419424166360e-05
1.171188308144307982e-08,5.950738911565615078e-05
1.194179245082278118e-08,6.036384621683057382e-05
1.217604940117531132e-08,6.123263046331883905e-05
1.241475719817297246e-08,6.211391934745584943e-05
1.265802476472910261e-08,6.300789292557625423e-05
1.290596716299614084e-08,6.391473385583899662e-05
1.315870611590367839e-08,6.483462743667117798e-05
1.341637057118419540e-08,6.576776164584598389e-05
1.367909731103843826e-08,6.671432718020938314e-05
1.394703161081049215e-08,6.767451749607138851e-05
1.422032795027459296e-08,6.864852885027797964e-05
1.449915078138340341e-08,6.963656034198069649e-05
1.478367459762611645e-08,7.063881395336756702e-05
1.507373785122432309e-08,7.165549379101188165e-05
1.536918846896753752e-08,7.268680692606989630e-05
1.567014066149617603e-08,7.373296403013731215e-05
1.597671414977130650e-08,7.479417881556714648e-05
1.628903464019889221e-08,7.587066808014035295e-05
1.660723433995823797e-08,7.696265175245585064e-05
1.693145251559604859e-08,7.807035293805604883e-05
1.726183609816253906e-08,7.919399796630474024e-05
1.759854033839557171e-08,8.033381643803450683e-05
1.794172951570340611e-08,8.149004127398182555e-05
1.829157770495765604e-08,8.266290876402856297e-05
1.864826960538612290e-08,8.385265861726945587e-05
1.901200143615189779e-08,8.505953401292594711e-05
1.938298190352091887e-08,8.628378165212760001e-05
1.976143324485722692e-08,8.752565181058331758e-05
2.014759235504404587e-08,8.878539839216540569e-05
2.054133560136783864e-08,9.006327810217058653e-05
2.094236890271242779e-08,9.135955094880005456e-05
2.135084432708722567e-08,9.267448173903810639e-05
2.176692317248820870e-08,9.400833910753495176e-05
2.219077478817584456e-08,9.536139556863952745e-05
2.262257726852457273e-08,9.673392757361131441e-05
2.306251820516169112e-08,9.812621556877066753e-05
2.351079550181125478e-08,9.953854405460945028e-05
2.396761825656755088e-08,1.009712016458849730e-04
2.443320771665272351e-08,1.024244811327215481e-04
2.490779831106471594e-08,1.038986795427435008e-04
2.539163876689663952e-08,1.053940982042669443e-04
2.588499331550834876e-08,1.069110428105763121e-04
2.638814299515709942e-08,1.084498234853145839e-04
2.690138705714782875e-08,1.100107548490162457e-04
2.742504448304793426e-08,1.115941560868144423e-04
2.795907014317128071e-08,1.132003500823608872e-04
2.850298394992643837e-08,1.148296633169795035e-04
2.905697399173682472e-08,1.164824286120900342e-04
2.962125642425356424e-08,1.181589836408416871e-04
3.019605796462770543e-08,1.198596709544846585e-04
3.078161679700365492e-08,1.215848380544413477e-04
3.137818355416033425e-08,1.233348374655710207e-04
3.198602238107611255e-08,1.251100268106564780e-04
3.260541208659865546e-08,1.269107688861432744e-04
3.323664738983240695e-08,1.287374317391620239e-04
3.388004026831711732e-08,1.305903887458668045e-04
3.453592141556210334e-08,1.324700186911238547e-04
3.520464181602376387e-08,1.343767058495855835e-04
3.588657444617232082e-08,1.363108400681875673e-04
3.658211611088835895e-08,1.382728168501069982e-04
3.729168942506299446e-08,1.402630374402236461e-04
3.801536590376925272e-08,1.422819079752030689e-04
3.875242334088410269e-08,1.443298384707066907e-04
3.950307422589451875e-08,1.464072471773868579e-04
4.026761033316767957e-08,1.485145585532245951e-04
4.104633789823160954e-08,1.506522031898286577e-04
4.183957886566863882e-08,1.528206179032448099e-04
4.264767224202016353e-08,1.550202458262840146e-04
4.347097556166521262e-08,1.572515365024081081e-04
4.430986647419294081e-08,1.595149459812113648e-04
4.516474446238469689e-08,1.618109369155395333e-04
4.603603270055536734e-08,1.641399786602886813e-04
4.692418006368058712e-08,1.665025473729290324e-04
4.782966329845751232e-08,1.688991261158004982e-04
4.875298936821533330e-08,1.713302049602281527e-04
4.969469798441127080e-08,1.737962810925100141e-04
5.065536433832048650e-08,1.762978589218298019e-04
5.163524833040918116e-08,1.788354492984781064e-04
5.263333390953478298e-08,1.814095672094123571e-04
5.364982273090702990e-08,1.840207381767247326e-04
5.468510455923230416e-08,1.866694957546456799e-04
5.573958782571691865e-08,1.893563812104379529e-04
5.681370122326207155e-08,1.920819436388903137e-04
5.790789543604208028e-08,1.948467400787502746e-04
5.902264501367562604e-08,1.976513356311474358e-04
6.015845040091610557e-08,2.004963035800585113e-04
6.131584013455157399e-08,2.033822255148687406e-04
6.249537322001927757e-08,2.063096914550851440e-04
6.369764170110944669e-08,2.092792999772622549e-04
6.492327343705891852e-08,2.122916583442022913e-04
6.617293510232240934e-08,2.153473826364930030e-04
6.744733542536242903e-08,2.184470978864544259e-04
6.874722868391959422e-08,2.215914382145625779e-04
7.007311740567398510e-08,2.247810461848668184e-04
7.142365349612169280e-08,2.280165687694123123e-04
7.279896623322877304e-08,2.312986661379226345e-04
7.419958138060214969e-08,2.346280089865996222e-04
7.562605043412640940e-08,2.380052777104338683e-04
7.707895284251210357e-08,2.414311625475106481e-04
7.855889841509149628e-08,2.449063637257886672e-04
8.006652993108052959e-08,2.484315916124174421e-04
8.160252596552126646e-08,2.520075668656612919e-04
