Pressure [MeV/fm^3],Energy Density [MeV/fm^3]
3.057271337446852113e-11,9.560213094464676162e-07
3.125403243471411109e-11,9.697785756909121869e-07
3.195002899017050368e-11,9.837338138862371752e-07
3.266107625700358261e-11,9.978898730738665801e-07
3.338756511572471685e-11,1.012249643310129259e-06
3.412990544787485479e-11,1.026816056257923934e-06
3.488852757825902940e-11,1.041592085787017584e-06
3.566388383051872113e-11,1.056580748583102155e-06
3.645645020436839447e-11,1.071785104765748508e-06
3.726672818339698185e-11,1.087208258515395236e-06
3.809524668294687900e-11,1.102853358709511494e-06
3.894254717596047088e-11,1.118723599545234824e-06
3.980819317268503575e-11,1.134822219859404865e-06
4.069204269756665142e-11,1.151152505504939914e-06
4.159451435138279267e-11,1.167717790377316127e-06
4.251604426905365454e-11,1.184521456363675458e-06
4.345708744631573908e-11,1.201566934034925260e-06
4.441811917467842474e-11,1.218857703347921618e-06
4.539963659285517885e-11,1.236397294357885460e-06
4.640216036343823170e-11,1.254189287941215378e-06
4.742623648419860794e-11,1.272237316528848958e-06
4.847243824405014034e-11,1.290545064850341419e-06
4.954136833441410864e-11,1.309116270688826709e-06
5.063366112746684322e-11,1.327954725647027733e-06
5.174998513354669435e-11,1.347064275924489971e-06
5.289104565084430463e-11,1.366448823106213196e-06
5.405758762140229215e-11,1.386112324962866372e-06
5.525039763317724497e-11,1.406058796261258636e-06
5.646903726439999137e-11,1.426292307823001299e-06
5.771303196923791482e-11,1.446816989017374728e-06
5.898296064163719199e-11,1.467637030115377539e-06
6.027942690220665896e-11,1.488756681711389014e-06
6.160306100756831690e-11,1.510180255593499693e-06
6.295452191659991476e-11,1.531912125626551267e-06
6.433449952545945793e-11,1.553956728648084829e-06
6.574371708411906366e-11,1.576318565377396329e-06
6.718293380802613484e-11,1.599002201337902726e-06
6.865294769946296156e-11,1.622012267793026148e-06
7.015459859418985427e-11,1.645353462695813755e-06
7.168877145003908440e-11,1.669030551652505476e-06
7.325639989528026927e-11,1.693048368900270919e-06
7.485847005580820481e-11,1.717411818299342239e-06
7.649602468151396422e-11,1.742125874339775684e-06
7.817016759359752487e-11,1.767195583163072861e-06
7.988062360969728169e-11,1.792626061590892074e-06
8.162633299979033851e-11,1.818422498977592391e-06
8.340808015937283951e-11,1.844590161927006070e-06
8.522669603678202548e-11,1.871134392879585480e-06
8.708304856846475394e-11,1.898060611189406556e-06
8.897804558658008871e-11,1.925374314234137291e-06
9.091263796542526918e-11,1.953081078541249139e-06
9.288782302472871186e-11,1.981186560930708510e-06
9.490464820912074353e-11,2.009696499674411982e-06
9.696421506444171619e-11,2.038616715672628461e-06
9.906768353298936899e-11,2.067953113647714661e-06
1.012162765913402363e-10,2.097711683355381539e-06
1.034112852560187780e-10,2.127898500813786111e-06
1.056540739840318642e-10,2.158519729550732833e-06
1.079460864971474924e-10,2.189581621869288632e-06
1.102888520607770285e-10,2.221090520132083484e-06
1.126824144933824518e-10,2.253052855867674560e-06
1.151248399966780180e-10,2.285475150435452687e-06
1.176171279343896879e-10,2.318364023195832903e-06
1.201604235157462270e-10,2.351726188952307276e-06
1.227559243283536325e-10,2.385568459191730687e-06
1.254048845410148719e-10,2.419897743480807111e-06
1.281086194536027596e-10,2.454721050883096114e-06
1.308685104202298158e-10,2.490045491396872035e-06
1.336860101737994256e-10,2.525878277414157296e-06
1.365626485819865156e-10,2.562226725201286017e-06
1.395000388667896318e-10,2.599098256401330828e-06
1.424998843220294613e-10,2.636500399558764708e-06
1.455639855655478107e-10,2.674440791666706008e-06
1.486942483654000842e-10,2.712927179737126946e-06
1.518926920820372478e-10,2.751967422394405497e-06
1.551614587713570998e-10,2.791569491492609860e-06
1.585011740879479247e-10,2.831741471301606105e-06
1.619086776742481443e-10,2.872491556781949366e-06
1.653851267147012918e-10,2.913828067326550063e-06
1.689320906453756809e-10,2.955759442639698955e-06
1.725512110666639291e-10,2.998294243953116335e-06
1.762442075887001596e-10,3.041441155782044460e-06
1.800128841613954144e-10,3.085208987707202850e-06
1.838591359257937736e-10,3.129606676183039310e-06
1.877849566260245190e-10,3.174643286372685774e-06
1.917924466238749669e-10,3.220328014010058603e-06
1.958838215609404626e-10,3.266670187289560283e-06
2.000614217164288492e-10,3.313679268783821315e-06
2.043277221120297980e-10,3.361364857389946031e-06
2.086853434188115595e-10,3.409736690304764620e-06
2.131370637248888386e-10,3.458804645029543706e-06
2.176858312266425027e-10,3.508578741404679335e-06
2.223331941987082655e-10,3.559069141299218750e-06
2.270744901562693503e-10,3.610286143471020836e-06
2.319108696814690588e-10,3.662240203708545282e-06
2.368444737260934259e-10,3.714941929727810255e-06
2.418775418012426502e-10,3.768402081999415895e-06
2.470124200278483114e-10,3.822631575956742687e-06
2.522515698574773973e-10,3.877641484236768654e-06
2.575975775142771196e-10,3.933443038954014007e-06
2.630531642124911477e-10,3.990047634008159169e-06
2.686211972077866179e-10,4.047466827425911720e-06
2.743047017446955755e-10,4.105712343737658036e-06
2.801068739668096052e-10,4.164796076389514961e-06
2.860310948609837278e-10,4.224730090191338034e-06
2.920809453117362589e-10,4.285526623801335943e-06
2.982602223472759069e-10,4.347198092247884116e-06
3.045729566641848684e-10,4.409757089489191376e-06
3.110220274465123947e-10,4.473216388831354741e-06
3.176008456986004629e-10,4.537588932675305123e-06
3.243101743899541368e-10,4.602887861327234577e-06
3.311529418332895479e-10,4.669126507552740266e-06
3.381322147969375434e-10,4.736318396144142245e-06
3.452512100189178119e-10,4.804477246699463881e-06
3.525133066835544396e-10,4.873616976442682265e-06
3.599220599336935733e-10,4.943751703085965193e-06
3.674812154967126430e-10,5.014895747734586753e-06
3.751947255079811584e-10,5.087063637835238950e-06
3.830667656212760375e-10,5.160270110168503393e-06
3.911017535018689819e-10,5.234530113886216580e-06
3.993043688046453641e-10,5.309858813594532602e-06
4.076795747466800231e-10,5.386271592483463398e-06
4.162326413912428196e-10,5.463784055503731730e-06
4.249691707682289039e-10,5.542412032591772047e-06
4.338940369782887428e-10,5.622171580190913568e-06
4.429984726749350920e-10,5.703078963689351519e-06
4.522820706698003314e-10,5.785150696202988040e-06
4.617488161089674198e-10,5.868403535572829977e-06
4.714028829898881166e-10,5.952854481009762637e-06
4.812486499702344759e-10,6.038520776588885951e-06
4.912907175021732179e-10,6.125419914795872865e-06
5.015339263927795571e-10,6.213569640126241033e-06
5.119833778983827204e-10,6.302987952738409406e-06
5.226444554681888382e-10,6.393693112161493481e-06
5.335228482605695694e-10,6.485703641058759927e-06
5.446245765639959179e-10,6.579038329047728237e-06
5.559560192637404584e-10,6.673716236577901117e-06
5.675239435052335721e-10,6.769756698867145968e-06
5.793355367153553010e-10,6.867179329897794740e-06
5.913984411540230652e-10,6.966004026473515856e-06
6.037201583690037828e-10,7.066250971308396785e-06
6.162900709881818582e-10,7.167940607938156791e-06
6.291053049268460951e-10,7.271093687068836047e-06
6.421712797668437184e-10,7.375731271617162601e-06
6.554936739300172802e-10,7.481874727917017147e-06
6.690784465268842452e-10,7.589545730116093917e-06
6.829318610420655420e-10,7.698766264638351456e-06
6.970605109961439027e-10,7.809558634713394256e-06
7.114713477334451343e-10,7.921945464973958377e-06
7.261717104957090265e-10,8.035949706122695371e-06
7.411693589527798096e-10,8.151594639669444600e-06
7.564725083733617211e-10,8.268903882740349188e-06
7.720898676315619882e-10,8.387901392959969281e-06
7.880306802584954374e-10,8.508611473407861351e-06
8.043047687626386725e-10,8.631058777650892416e-06
8.209225824579951176e-10,8.755268314852776565e-06
8.378950655944539781e-10,8.881265454647321463e-06
8.552107106261554016e-10,9.009075893002206064e-06
8.728618822389430221e-10,9.138725702844618601e-06
8.908559286497727457e-10,9.270241358287948939e-06
9.092005487554293164e-10,9.403649714872288693e-06
9.279038218726005551e-10,9.538978015097568920e-06
9.469742399842065946e-10,9.676253894039998422e-06
9.664207426827845890e-10,9.815505385053317156e-06
9.862527550151299094e-10,9.956760925556316558e-06
1.006480228446724602e-09,1.010004936290822767e-05
1.027113685179730588e-09,1.024539996037358309e-05
1.048164266074602227e-09,1.039284240317815350e-05
1.069643782442724862e-09,1.054240680465769204e-05
1.091564771995981289e-09,1.069412371250121932e-05
1.113940559258856505e-09,1.084802411509062116e-05
1.136785320769715132e-09,1.100413944793846493e-05
1.160114155420260525e-09,1.116250160022587250e-05
1.183916877373312512e-09,1.132314287439316850e-05
1.208177348152687567e-09,1.148609602742717493e-05
1.232905525687406585e-09,1.165139433489946338e-05
1.258111855415119560e-09,1.181907155187486971e-05
1.283807303092332522e-09,1.198916191985845852e-05
1.310003399208339012e-09,1.216170017386242402e-05
1.336712287121417770e-09,1.233672154958021175e-05
1.363946775199274050e-09,1.251426179066986020e-05
1.391720393265448815e-09,1.269435715614848485e-05
1.420047453674513800e-09,1.287704442790006994e-05
1.448943117361325077e-09,1.306236091829865659e-05
1.478423465233569518e-09,1.325034447794908039e-05
1.508505575302387072e-09,1.344103350354760153e-05
1.539207605973068269e-09,1.363446694586472103e-05
1.570548885946835820e-09,1.383068431785256170e-05
1.602550011215650742e-09,1.402972570287935992e-05
1.635204872469511406e-09,1.423163171194744932e-05
1.668484439976527861e-09,1.443644349904425228e-05
1.702401564712725836e-09,1.464420288757775472e-05
1.736970391870924275e-09,1.485495230487223288e-05
1.772205771590812661e-09,1.506873478975176644e-05
1.808123319342308137e-09,1.528559400143258859e-05
1.844739481377388214e-09,1.550557422855117486e-05
1.882071605634578959e-09,1.572872039833042877e-05
1.920138018507205159e-09,1.595507808588671046e-05
1.958958107915248516e-09,1.618469352368031371e-05
1.998552413151260011e-09,1.641761361111214936e-05
2.038942722003439417e-09,1.665388592426953021e-05
2.080152175693804323e-09,1.689355872582395428e-05
2.122205382206456257e-09,1.713668097508390866e-05
2.165128538620526255e-09,1.738330233820592290e-05
2.208949563104471717e-09,1.763347319856696849e-05
2.253669690511578327e-09,1.788724461330106725e-05
2.299243107270500446e-09,1.814466828574349009e-05
2.345684982752821060e-09,1.840579678042035682e-05
2.393014414717742516e-09,1.867068342539648441e-05
2.441251445370637451e-09,1.893938231750562235e-05
2.490417142316304080e-09,1.921194833354591074e-05
2.540533686318073729e-09,1.948843714164754016e-05
2.591624466379130243e-09,1.976890521281584901e-05
2.643714182698637222e-09,2.005340983265317868e-05
2.696828958093932679e-09,2.034200911326317286e-05
2.750996458521178144e-09,2.063476200534096667e-05
2.806246023370803550e-09,2.093172831045310106e-05
2.862608806260908480e-09,2.123296869351099769e-05
2.920117927101675482e-09,2.153854469544204335e-05
2.978808636257022323e-09,2.184851874606233584e-05
3.038718491686441070e-09,2.216295417715548596e-05
3.099859950430131923e-09,2.248191518111898162e-05
3.162165821724589729e-09,2.280546671630503391e-05
3.225651858440070888e-09,2.313367484230380034e-05
3.290343887044335391e-09,2.346660658891027465e-05
3.356269016969442063e-09,2.380432995238571710e-05
3.423455751086870217e-09,2.414691390955011439e-05
3.491934105483250435e-09,2.449442843209279782e-05
3.561735739242639421e-09,2.484694450110554669e-05
3.632894094990752944e-09,2.520453412184251005e-05
3.705444551009412409e-09,2.556727033871165989e-05
3.779424585785736607e-09,2.593522725050234967e-05
3.854873955920665139e-09,2.630848002585396553e-05
3.931834888385417606e-09,2.668710491897065073e-05
4.010352288182697406e-09,2.707117928558745655e-05
4.090473962542156910e-09,2.746078159919317476e-05
4.172250862857178250e-09,2.785599146751569595e-05
4.255712346571927283e-09,2.825688959864095935e-05
4.340765174114153884e-09,2.866355761323193855e-05
4.427421650512139889e-09,2.907607852355343045e-05
4.515716633803656742e-09,2.949453658190033067e-05
4.605686704365756938e-09,2.991901725556380523e-05
4.697370313304073094e-09,3.034960724456919380e-05
4.790807943347702352e-09,3.078639449969036761e-05
4.886042283199435799e-09,3.122946824074611209e-05
4.983118416357708744e-09,3.167891897518411442e-05
5.082084025497802599e-09,3.213483851695879022e-05
5.182989613575523587e-09,3.259732000570873963e-05
5.285888742897456113e-09,3.306645792624057870e-05
5.390838293488022948e-09,3.354234812832533261e-05
5.497898742175413025e-09,3.402508784681462111e-05
5.607134463916289782e-09,3.451477572208343962e-05
5.718614056983552571e-09,3.501151182080709134e-05
5.832390459117400706e-09,3.551539761463829830e-05
5.948342202907939830e-09,3.602653566871652036e-05
6.066470661640661133e-09,3.654503028697173896e-05
6.186822902131459189e-09,3.707098737042779842e-05
6.309448310854636476e-09,3.760451434770255302e-05
6.434398794009792572e-09,3.814572019735084783e-05
6.561728994463069635e-09,3.869471547055914029e-05
6.691496526844783197e-09,3.925161231419899258e-05
6.823762232175501788e-09,3.981652449424713286e-05
6.958590453488500846e-09,4.038956741957972207e-05
7.096049334018990006e-09,4.097085816614917463e-05
7.236211139639431027e-09,4.156051550155161054e-05
7.379152607336786082e-09,4.215865990999412044e-05
7.524955321651335268e-09,4.276541361767048361e-05
7.673706121128990744e-09,4.338090061855507626e-05
7.825497536979751532e-09,4.400524670062461277e-05
7.980414657934293258e-09,4.463857944282811235e-05
8.138310179936450783e-09,4.528102775076631398e-05
8.299161320264259595e-09,4.593272266248269792e-05
8.463031375672101524e-09,4.659379729053967972e-05
8.629986707613745151e-09,4.726438666792166012e-05
8.800097005560583234e-09,4.794462777615580068e-05
8.973435572553196252e-09,4.863465957387821666e-05
9.150079634677543524e-09,4.933462302585484369e-05
9.330110676275750692e-09,5.004466113246678341e-05
9.513614802828328696e-09,5.076491895967040772e-05
9.700683133579642021e-09,5.149554366944263665e-05
9.891412226122532227e-09,5.223668455072221167e-05
1.008590453531168964e-08,5.298849305085845699e-05
1.028426890903899728e-08,5.375112280757942101e-05
1.048662112357856981e-08,5.452472968149131756e-05
1.069308446139532100e-08,5.530947178912246027e-05
1.090378402772287075e-08,5.610550952233624806e-05
1.111855455395634659e-08,5.691300492447535326e-05
1.133732691717664119e-08,5.773212259484352657e-05
1.156018642862881412e-08,5.856302985176223801e-05
1.178722253819574776e-08,5.940589642819105425e-05
1.201852919118864093e-08,6.026089450716059218e-05
1.225420521530009606e-08,6.112819875777289632e-05
1.249435474001509191e-08,6.200798637178148501e-05
1.273908765093646583e-08,6.290043710076409608e-05
1.298852008165344231e-08,6.380573329390163697e-05
1.324277494596512225e-08,6.472405993637695971e-05
1.350198251346653192e-08,6.565560468840838889e-05
1.376628103171309641e-08,6.660055792493251047e-05
1.403581739840192886e-08,6.755911277595260658e-05
1.431074788724490534e-08,6.853146516756852488e-05
1.459123893146115763e-08,6.951781386370522141e-05
1.487746719910801294e-08,7.051836050677764685e-05
1.516926837355156950e-08,7.153330884699689437e-05
1.546648733886109984e-08,7.256286559444425331e-05
1.576923900037235754e-08,7.360724106374396021e-05
1.607764381645536106e-08,7.466664860528951942e-05
1.639182827753757496e-08,7.574130464985737567e-05
1.671192542565724379e-08,7.683142875394046974e-05
1.703807541763263290e-08,7.793724364581775064e-05
1.737042613514971783e-08,7.905897527237658480e-05
1.770913384530224983e-08,8.019685284670549099e-05
1.805436391536455489e-08,8.135110889647530696e-05
1.840629158584060003e-08,8.252197931312788351e-05
1.876510280611302946e-08,8.370970340189152331e-05
1.913099513731499869e-08,8.491452393264436072e-05
1.950417872736578118e-08,8.613668719164652631e-05
1.988487736345106071e-08,8.737644303416368830e-05
2.027332960759021737e-08,8.863404493800525392e-05
2.066941105299844452e-08,8.990974916922426542e-05
2.107282559600889010e-08,9.120381528543273922e-05
2.148372626697087611e-08,9.251650764435937608e-05
2.190227538671524605e-08,9.384809442492199653e-05
2.232864337946013572e-08,9.519884767912755352e-05
2.276300947089749125e-08,9.656904338918364736e-05
2.320556244491033433e-08,9.795896152554660157e-05
2.365650146336156299e-08,9.936888610592810908e-05
2.411603695370596772e-08,1.007991052552833252e-04
2.458439156950879523e-08,1.022499112668043010e-04
2.506180122930782885e-08,1.037216006639433670e-04
2.554851623963314208e-08,1.052144742634925453e-04
2.604480250840038063e-08,1.067288372397461993e-04
2.655094285532210633e-08,1.082649991897746808e-04
2.706723842643783720e-08,1.098232741998388145e-04
2.759401022035051786e-08,1.114039809129758763e-04
2.813121427298542872e-08,1.130074416578132784e-04
2.867837018364225456e-08,1.146339823492739456e-04
2.923566707783308752e-08,1.162839352450595494e-04
2.980332218413175001e-08,1.179576374470487005e-04
3.038156328331996426e-08,1.196554309273251197e-04
3.097062961105988876e-08,1.213776626001684044e-04
3.157077283646804300e-08,1.231246843952398169e-04
3.218225812234897206e-08,1.248968533319919734e-04
3.280536527325121627e-08,1.266945315953329695e-04
3.344038997793821848e-08,1.285180866125761794e-04
3.408764515332643317e-08,1.303678911317083221e-04
3.474746239743258545e-08,1.322443233010110470e-04
3.542019355939360880e-08,1.341477667500709211e-04
3.610621243517944954e-08,1.360786106722156833e-04
3.680591659821196180e-08,1.380372499084164502e-04
3.751972937473465913e-08,1.400240850326959043e-04
3.824772324958139506e-08,1.420395214888585248e-04
3.898917788037353992e-08,1.440839685609531570e-04
3.974430709906852054e-08,1.461578437895706347e-04
4.051340399072916147e-08,1.482615709149809357e-04
4.129677611878401331e-08,1.503955798010302928e-04
4.209474677349006518e-08,1.525603065258329444e-04
4.290765632547717355e-08,1.547561934739829083e-04
4.373586369234394703e-08,1.569836894303235379e-04
4.457974792683321980e-08,1.592432496753142163e-04
4.543970993571110138e-08,1.615353360820354154e-04
4.631617433910880515e-08,1.638604172148753796e-04
4.720959148076379346e-08,1.662189684299428055e-04
4.812043960031854190e-08,1.686114719772534114e-04
4.904922717960514497e-08,1.710384171047386447e-04
4.999649547566379443e-08,1.735003001641288929e-04
5.096282125411741184e-08,1.759976247187644604e-04
5.194846216570403446e-08,1.785309007536524254e-04
5.295238755455995910e-08,1.811006423484004741e-04
5.397480027398674414e-08,1.837073741320933832e-04
5.501609369854093234e-08,1.863516287572451540e-04
5.607668033621991842e-08,1.890339465766725585e-04
5.715699347167205821e-08,1.917548757578291642e-04
5.825748894779110979e-08,1.945149723990794040e-04
5.937864709619990930e-08,1.973148006479617225e-04
6.052097482786464600e-08,2.001549328214945764e-04
6.168500789586643323e-08,2.030359495285781165e-04
6.287131334319549392e-08,2.059584397945489324e-04
6.408049214932603238e-08,2.089230011879473288e-04
6.531318209028280237e-08,2.119302399495597456e-04
6.657006082792451838e-08,2.149807711238006151e-04
6.785184924525288337e-08,2.180752186925035340e-04
6.915931504570671368e-08,2.212142157111916525e-04
7.049297346908068136e-08,2.243984036591611931e-04
7.185147288052270188e-08,2.276284283758776405e-04
7.323494217334522155e-08,2.309049489074746064e-04
7.464390834635563708e-08,2.342286348170966839e-04
7.607892365205900027e-08,2.376001653506234948e-04
7.754056775945104770e-08,2.410202295807700507e-04
7.902945009917314894e-08,2.444895265536591511e-04
8.054621240488896196e-08,2.480087654379321415e-04
8.209153146571450118e-08,2.515786656764651451e-04
